,ST,ET,sidx,eidx,bB,bBS,bA,bAS,O,H,L,C,V,OF,eB,eBS,eA,eAS
2016-07-19 08:00:00,08:00:00,08:00:59,2703,3345,16605.0,41,16615.0,60,16615.0,16625.0,16570.0,16590.0,1078,-17,16585,13,16590,11
2016-07-19 08:01:00,08:01:00,08:01:59,3348,4191,16585.0,13,16590.0,11,16585.0,16585.0,16565.0,16570.0,1152,-64,16565,38,16570,1
2016-07-19 08:02:00,08:02:00,08:02:59,4192,4431,16570.0,1,16575.0,30,16570.0,16570.0,16560.0,16570.0,232,44,16570,11,16575,29
2016-07-19 08:03:00,08:03:00,08:03:59,4436,4770,16570.0,12,16575.0,40,16570.0,16580.0,16570.0,16575.0,405,103,16575,20,16580,28
2016-07-19 08:04:00,08:04:04,08:04:56,4783,4939,16575.0,21,16580.0,32,16575.0,16575.0,16570.0,16570.0,149,-82,16570,23,16575,42
2016-07-19 08:05:00,08:05:02,08:05:54,4950,5101,16570.0,34,16575.0,40,16570.0,16575.0,16570.0,16570.0,121,-83,16570,23,16575,39
2016-07-19 08:06:00,08:06:06,08:06:59,5116,5385,16570.0,38,16575.0,52,16570.0,16585.0,16570.0,16580.0,292,94,16580,17,16585,24
2016-07-19 08:07:00,08:07:00,08:07:55,5389,5663,16580.0,17,16585.0,27,16585.0,16585.0,16575.0,16585.0,277,49,16580,51,16585,9
2016-07-19 08:08:00,08:08:00,08:08:52,5674,6049,16580.0,53,16585.0,22,16585.0,16600.0,16585.0,16595.0,423,20,16595,11,16600,23
2016-07-19 08:09:00,08:09:02,08:09:59,6063,6219,16595.0,35,16600.0,32,16595.0,16595.0,16590.0,16590.0,159,-19,16590,3,16595,25
2016-07-19 08:10:00,08:10:00,08:10:58,6222,6317,16590.0,3,16595.0,25,16590.0,16590.0,16585.0,16590.0,79,29,16590,2,16590,19
2016-07-19 08:11:00,08:11:01,08:11:50,6321,6454,16585.0,34,16590.0,24,16590.0,16590.0,16585.0,16585.0,133,71,16585,11,16590,37
2016-07-19 08:12:00,08:12:00,08:12:27,6465,6600,16585.0,14,16590.0,42,16585.0,16585.0,16575.0,16575.0,108,32,16570,30,16575,14
2016-07-19 08:13:00,08:13:12,08:13:54,6638,6778,16570.0,33,16575.0,41,16570.0,16575.0,16565.0,16570.0,158,12,16565,72,16570,50
2016-07-19 08:14:00,08:14:06,08:14:55,6790,6945,16565.0,66,16570.0,56,16565.0,16570.0,16565.0,16565.0,213,73,16565,6,16570,29
2016-07-19 08:15:00,08:15:01,08:15:59,6952,7302,16565.0,25,16570.0,27,16565.0,16565.0,16545.0,16550.0,409,20,16545,58,16550,20
2016-07-19 08:16:00,08:16:00,08:16:41,7305,7526,16545.0,58,16550.0,20,16550.0,16555.0,16550.0,16555.0,234,106,16550,23,16555,24
2016-07-19 08:17:00,08:17:04,08:17:52,7550,7781,16550.0,30,16555.0,29,16550.0,16550.0,16535.0,16540.0,231,-51,16540,14,16545,36
2016-07-19 08:18:00,08:18:00,08:18:59,7787,8072,16540.0,21,16545.0,31,16540.0,16545.0,16535.0,16535.0,325,-113,16530,26,16535,18
2016-07-19 08:19:00,08:19:00,08:19:59,8078,8457,16530.0,35,16535.0,22,16530.0,16530.0,16520.0,16530.0,448,5,16525,28,16535,48
2016-07-19 08:20:00,08:20:00,08:20:56,8461,8637,16525.0,28,16530.0,6,16530.0,16535.0,16525.0,16525.0,156,36,16525,29,16530,25
2016-07-19 08:21:00,08:21:00,08:21:57,8650,8875,16525.0,31,16530.0,16,16530.0,16540.0,16530.0,16540.0,176,92,16540,26,16545,41
2016-07-19 08:22:00,08:22:02,08:22:59,8890,9109,16540.0,29,16545.0,38,16540.0,16540.0,16530.0,16535.0,175,-50,16535,3,16540,27
2016-07-19 08:23:00,08:23:00,08:23:56,9113,9257,16535.0,4,16540.0,27,16535.0,16545.0,16535.0,16545.0,93,18,16540,30,16545,23
2016-07-19 08:24:00,08:24:10,08:24:58,9279,9448,16540.0,32,16545.0,26,16545.0,16550.0,16540.0,16550.0,174,44,16545,33,16550,27
2016-07-19 08:25:00,08:25:20,08:25:53,9468,9604,16545.0,38,16550.0,45,16545.0,16545.0,16540.0,16545.0,169,-27,16540,38,16545,26
2016-07-19 08:26:00,08:26:01,08:26:58,9610,9710,16540.0,36,16545.0,34,16545.0,16555.0,16540.0,16555.0,128,58,16550,31,16555,19
2016-07-19 08:27:00,08:27:04,08:27:56,9725,9919,16550.0,22,16555.0,51,16550.0,16565.0,16550.0,16565.0,217,159,16565,4,16570,19
2016-07-19 08:28:00,08:28:00,08:28:50,9930,10153,16565.0,37,16570.0,25,16570.0,16575.0,16565.0,16575.0,272,112,16570,23,16575,34
2016-07-19 08:29:00,08:29:07,08:29:39,10160,10335,16570.0,20,16575.0,34,16570.0,16575.0,16565.0,16575.0,196,-24,16570,20,16575,16
2016-07-19 08:30:00,08:30:00,08:30:57,10360,10612,16570.0,21,16575.0,31,16575.0,16595.0,16575.0,16590.0,205,126,16590,17,16595,37
2016-07-19 08:31:00,08:31:00,08:31:57,10615,10769,16590.0,19,16595.0,35,16590.0,16595.0,16580.0,16580.0,123,-89,16580,18,16585,23
2016-07-19 08:32:00,08:32:03,08:32:53,10774,10907,16580.0,24,16585.0,16,16585.0,16585.0,16580.0,16585.0,134,96,16580,32,16585,4
2016-07-19 08:33:00,08:33:01,08:33:57,10919,11049,16580.0,34,16585.0,5,16585.0,16585.0,16580.0,16585.0,107,-51,16580,26,16585,22
2016-07-19 08:34:00,08:34:20,08:34:53,11072,11209,16580.0,10,16585.0,35,16580.0,16580.0,16565.0,16565.0,136,-116,16565,7,16570,25
2016-07-19 08:35:00,08:35:03,08:35:58,11221,11354,16565.0,16,16570.0,27,16565.0,16580.0,16565.0,16570.0,77,-17,16570,14,16575,12
2016-07-19 08:36:00,08:36:04,08:36:47,11364,11438,16570.0,17,16575.0,11,16570.0,16575.0,16565.0,16570.0,36,-22,16570,24,16575,19
2016-07-19 08:37:00,08:37:07,08:37:37,11461,11540,16570.0,24,16575.0,17,16570.0,16570.0,16565.0,16565.0,57,-23,16565,9,16570,27
2016-07-19 08:38:00,08:38:07,08:38:54,11558,11642,16565.0,20,16570.0,30,16565.0,16565.0,16560.0,16560.0,40,-6,16560,21,16565,13
2016-07-19 08:39:00,08:39:06,08:39:27,11658,11710,16560.0,20,16565.0,21,16560.0,16560.0,16560.0,16560.0,47,-47,16560,2,16565,23
2016-07-19 08:40:00,08:40:01,08:40:43,11759,11930,16560.0,23,16565.0,17,16560.0,16565.0,16550.0,16560.0,202,-63,16555,15,16560,22
2016-07-19 08:41:00,08:41:00,08:41:53,11956,12071,16555.0,13,16560.0,17,16560.0,16565.0,16560.0,16560.0,79,17,16555,28,16565,25
2016-07-19 08:42:00,08:42:35,08:42:36,12118,12135,16560.0,21,16565.0,18,16565.0,16570.0,16565.0,16565.0,17,11,16565,9,16570,36
2016-07-19 08:43:00,08:43:01,08:43:59,12159,12303,16565.0,13,16570.0,39,16565.0,16570.0,16560.0,16570.0,104,44,16565,34,16570,3
2016-07-19 08:44:00,08:44:00,08:44:54,12304,12436,16565.0,33,16570.0,39,16570.0,16570.0,16560.0,16560.0,127,29,16555,18,16560,8
2016-07-19 08:45:00,08:45:01,08:45:34,12448,12498,16555.0,23,16560.0,4,16555.0,16555.0,16555.0,16555.0,39,13,16550,73,16555,8
2016-07-19 08:46:00,08:46:00,08:46:56,12516,12650,16550.0,73,16555.0,27,16555.0,16575.0,16555.0,16560.0,122,43,16555,33,16560,5
2016-07-19 08:47:00,08:47:04,08:47:55,12666,12858,16555.0,41,16560.0,19,16555.0,16570.0,16550.0,16560.0,215,-5,16560,15,16565,27
2016-07-19 08:48:00,08:48:32,08:48:40,12878,12933,16560.0,24,16565.0,30,16565.0,16565.0,16565.0,16565.0,67,21,16560,23,16565,4
2016-07-19 08:49:00,08:49:09,08:49:59,12965,13198,16560.0,16,16565.0,22,16560.0,16560.0,16535.0,16535.0,286,-226,16535,15,16540,33
2016-07-19 08:50:00,08:50:00,08:50:39,13201,13253,16535.0,15,16540.0,33,16535.0,16540.0,16535.0,16535.0,21,-3,16535,4,16540,39
2016-07-19 08:51:00,08:51:00,08:51:53,13271,13423,16535.0,19,16540.0,35,16540.0,16545.0,16540.0,16545.0,184,92,16545,9,16550,44
2016-07-19 08:52:00,08:52:06,08:52:45,13438,13497,16545.0,23,16550.0,43,16550.0,16550.0,16535.0,16535.0,37,-25,16535,20,16540,30
2016-07-19 08:53:00,08:53:02,08:53:41,13517,13671,16535.0,30,16540.0,31,16540.0,16545.0,16540.0,16540.0,208,9,16535,10,16540,71
2016-07-19 08:54:00,08:54:06,08:54:56,13695,13987,16535.0,9,16540.0,26,16535.0,16535.0,16510.0,16525.0,396,-160,16520,46,16525,36
2016-07-19 08:55:00,08:55:00,08:55:57,13998,14249,16520.0,46,16525.0,43,16525.0,16525.0,16510.0,16515.0,274,-8,16515,24,16515,10
2016-07-19 08:56:00,08:56:13,08:56:48,14267,14427,16515.0,34,16520.0,19,16520.0,16520.0,16515.0,16515.0,185,-57,16510,21,16515,28
2016-07-19 08:57:00,08:57:02,08:57:42,14440,14607,16510.0,29,16515.0,27,16515.0,16520.0,16515.0,16515.0,199,66,16510,32,16515,14
2016-07-19 08:58:00,08:58:00,08:58:57,14636,14746,16510.0,23,16515.0,27,16515.0,16520.0,16515.0,16520.0,91,42,16515,47,16525,68
2016-07-19 08:59:00,08:59:01,08:59:41,14752,14816,16520.0,8,16525.0,68,16525.0,16525.0,16520.0,16525.0,23,5,16520,45,16525,37
2016-07-19 09:00:00,09:00:00,09:00:49,14849,15052,16520.0,27,16525.0,59,16520.0,16535.0,16520.0,16530.0,233,55,16530,7,16535,48
2016-07-19 09:01:00,09:01:01,09:01:55,15067,15202,16525.0,12,16530.0,42,16525.0,16530.0,16520.0,16525.0,116,-22,16520,27,16525,5
2016-07-19 09:02:00,09:02:03,09:02:54,15213,15431,16520.0,23,16525.0,28,16520.0,16520.0,16505.0,16505.0,222,-108,16500,43,16505,3
2016-07-19 09:03:00,09:03:02,09:03:59,15450,15727,16500.0,18,16505.0,27,16500.0,16505.0,16495.0,16505.0,332,-2,16505,5,16510,28
2016-07-19 09:04:00,09:04:00,09:04:59,15729,15900,16500.0,19,16510.0,28,16505.0,16520.0,16505.0,16505.0,161,64,16500,25,16510,52
2016-07-19 09:05:00,09:05:21,09:05:51,15923,15968,16500.0,34,16510.0,48,16505.0,16510.0,16505.0,16505.0,24,5,16500,34,16510,53
2016-07-19 09:06:00,09:06:00,09:06:50,15982,16039,16500.0,22,16505.0,31,16505.0,16505.0,16500.0,16505.0,20,14,16500,27,16505,48
2016-07-19 09:07:00,09:07:00,09:07:51,16049,16183,16500.0,31,16505.0,40,16505.0,16515.0,16505.0,16515.0,125,71,16510,23,16515,58
2016-07-19 09:08:00,09:08:01,09:08:56,16194,16314,16510.0,25,16515.0,59,16515.0,16520.0,16510.0,16515.0,96,64,16515,12,16520,38
2016-07-19 09:09:00,09:09:01,09:09:54,16321,16384,16515.0,15,16520.0,36,16520.0,16520.0,16515.0,16515.0,26,2,16510,29,16515,20
2016-07-19 09:10:00,09:10:01,09:10:59,16394,16586,16510.0,30,16515.0,28,16515.0,16515.0,16505.0,16515.0,159,77,16510,36,16515,5
2016-07-19 09:11:00,09:11:01,09:11:56,16590,16657,16510.0,36,16515.0,6,16515.0,16520.0,16515.0,16520.0,30,30,16515,28,16520,7
2016-07-19 09:12:00,09:12:01,09:12:51,16663,16778,16515.0,28,16520.0,25,16520.0,16530.0,16520.0,16520.0,111,25,16515,14,16520,26
2016-07-19 09:13:00,09:13:01,09:13:59,16792,16929,16515.0,21,16520.0,26,16520.0,16525.0,16510.0,16510.0,87,67,16510,25,16515,13
2016-07-19 09:14:00,09:14:02,09:14:54,16937,17065,16510.0,24,16515.0,16,16515.0,16515.0,16510.0,16510.0,65,31,16505,22,16515,24
2016-07-19 09:15:00,09:15:02,09:15:52,17077,17232,16505.0,19,16515.0,23,16515.0,16515.0,16505.0,16510.0,80,-4,16505,19,16510,15
2016-07-19 09:16:00,09:16:01,09:16:52,17249,17354,16505.0,24,16510.0,13,16510.0,16515.0,16510.0,16515.0,58,18,16510,15,16515,36
2016-07-19 09:17:00,09:17:01,09:17:58,17363,17444,16510.0,17,16515.0,35,16510.0,16515.0,16510.0,16510.0,37,-3,16505,21,16510,17
2016-07-19 09:18:00,09:18:00,09:18:58,17450,17590,16505.0,25,16510.0,2,16510.0,16515.0,16510.0,16515.0,180,19,16515,27,16520,15
2016-07-19 09:19:00,09:19:02,09:19:52,17599,17692,16515.0,26,16520.0,23,16520.0,16520.0,16515.0,16520.0,33,21,16515,33,16520,25
2016-07-19 09:20:00,09:20:02,09:20:53,17703,17843,16515.0,27,16520.0,29,16520.0,16530.0,16520.0,16530.0,126,86,16530,5,16535,45
2016-07-19 09:21:00,09:21:03,09:21:53,17862,17982,16530.0,8,16535.0,42,16535.0,16540.0,16530.0,16535.0,82,46,16530,26,16535,10
2016-07-19 09:22:00,09:22:03,09:22:53,17989,18092,16530.0,26,16535.0,15,16535.0,16540.0,16530.0,16540.0,55,27,16535,5,16540,43
2016-07-19 09:23:00,09:23:03,09:23:53,18097,18170,16535.0,4,16540.0,43,16540.0,16540.0,16535.0,16535.0,18,12,16530,31,16535,27
2016-07-19 09:24:00,09:24:03,09:24:56,18178,18244,16530.0,30,16535.0,29,16535.0,16540.0,16535.0,16540.0,36,32,16530,27,16540,34
2016-07-19 09:25:00,09:25:03,09:25:53,18246,18391,16535.0,5,16540.0,34,16540.0,16540.0,16525.0,16530.0,128,-60,16525,20,16530,24
2016-07-19 09:26:00,09:26:47,09:26:51,18439,18467,16525.0,22,16530.0,24,16525.0,16525.0,16525.0,16525.0,29,15,16520,38,16530,41
2016-07-19 09:27:00,09:27:05,09:27:52,18481,18544,16520.0,41,16525.0,7,16525.0,16530.0,16525.0,16530.0,38,-6,16525,23,16530,31
2016-07-19 09:28:00,09:28:10,09:28:55,18558,18678,16525.0,15,16530.0,31,16525.0,16525.0,16510.0,16515.0,101,-86,16510,30,16520,45
2016-07-19 09:29:00,09:29:45,09:29:45,18731,18737,16515.0,11,16520.0,36,16515.0,16515.0,16515.0,16515.0,9,-9,16510,25,16515,23
2016-07-19 09:30:00,09:30:01,09:30:53,18757,18942,16510.0,25,16515.0,31,16510.0,16535.0,16510.0,16530.0,182,20,16530,3,16535,20
2016-07-19 09:31:00,09:31:04,09:31:52,18956,19058,16530.0,9,16535.0,27,16535.0,16535.0,16520.0,16525.0,70,-8,16520,35,16530,48
2016-07-19 09:32:00,09:32:04,09:32:55,19068,19180,16525.0,8,16530.0,43,16525.0,16535.0,16525.0,16535.0,103,38,16530,19,16535,20
2016-07-19 09:33:00,09:33:09,09:33:53,19197,19314,16530.0,18,16535.0,22,16535.0,16535.0,16525.0,16530.0,105,-1,16530,10,16535,21
2016-07-19 09:34:00,09:34:10,09:34:59,19335,19460,16530.0,11,16535.0,22,16535.0,16535.0,16525.0,16525.0,51,29,16520,26,16525,2
2016-07-19 09:35:00,09:35:03,09:35:59,19470,19601,16520.0,26,16525.0,8,16525.0,16525.0,16510.0,16515.0,80,-30,16515,27,16520,30
2016-07-19 09:36:00,09:36:01,09:36:59,19604,19772,16515.0,27,16520.0,30,16515.0,16515.0,16510.0,16510.0,142,-34,16505,25,16510,3
2016-07-19 09:37:00,09:37:01,09:37:56,19776,19848,16505.0,25,16510.0,10,16505.0,16515.0,16505.0,16510.0,31,-1,16510,36,16515,10
2016-07-19 09:38:00,09:38:00,09:38:33,19853,19972,16510.0,38,16515.0,5,16510.0,16525.0,16510.0,16520.0,108,46,16520,3,16525,18
2016-07-19 09:39:00,09:39:23,09:39:40,19996,20092,16520.0,13,16525.0,27,16520.0,16520.0,16515.0,16515.0,87,-35,16515,3,16520,22
2016-07-19 09:40:00,09:40:15,09:40:57,20116,20191,16515.0,10,16520.0,16,16515.0,16515.0,16510.0,16515.0,55,7,16515,4,16520,15
2016-07-19 09:41:00,09:41:07,09:41:39,20204,20324,16515.0,9,16520.0,24,16515.0,16515.0,16505.0,16510.0,67,-21,16505,15,16510,8
2016-07-19 09:42:00,09:42:03,09:42:40,20342,20430,16505.0,12,16510.0,14,16510.0,16520.0,16510.0,16520.0,50,-14,16515,16,16520,11
2016-07-19 09:43:00,09:43:05,09:43:49,20450,20557,16515.0,20,16520.0,11,16520.0,16530.0,16520.0,16530.0,79,77,16525,16,16530,10
2016-07-19 09:44:00,09:44:13,09:44:24,20580,20607,16525.0,13,16530.0,20,16525.0,16530.0,16525.0,16530.0,20,4,16525,6,16530,18
2016-07-19 09:45:00,09:45:03,09:45:54,20652,20758,16525.0,13,16530.0,19,16525.0,16525.0,16520.0,16520.0,56,-10,16515,25,16520,8
2016-07-19 09:46:00,09:46:25,09:46:42,20790,20832,16515.0,18,16520.0,19,16520.0,16525.0,16520.0,16525.0,26,26,16525,20,16530,14
2016-07-19 09:47:00,09:47:04,09:47:53,20863,20963,16525.0,31,16530.0,6,16525.0,16530.0,16525.0,16525.0,45,-25,16520,35,16530,20
2016-07-19 09:48:00,09:48:57,09:48:57,21038,21038,16525.0,13,16530.0,37,16525.0,16525.0,16525.0,16525.0,1,-1,16525,12,16530,36
2016-07-19 09:49:00,09:49:05,09:49:57,21042,21175,16525.0,10,16530.0,36,16530.0,16530.0,16525.0,16525.0,95,65,16525,8,16530,25
2016-07-19 09:50:00,09:50:00,09:50:47,21185,21259,16520.0,29,16525.0,14,16520.0,16525.0,16520.0,16525.0,13,1,16525,17,16530,24
2016-07-19 09:51:00,09:51:00,09:51:51,21278,21444,16525.0,27,16530.0,19,16525.0,16525.0,16515.0,16520.0,132,-54,16515,27,16525,20
2016-07-19 09:52:00,09:52:00,09:52:43,21465,21559,16520.0,21,16525.0,9,16520.0,16525.0,16520.0,16525.0,40,-17,16525,4,16530,32
2016-07-19 09:53:00,09:53:00,09:53:58,21570,21611,16525.0,1,16530.0,28,16525.0,16525.0,16520.0,16520.0,21,-6,16515,23,16525,21
2016-07-19 09:54:00,09:54:00,09:54:59,21617,21759,16520.0,46,16525.0,20,16520.0,16525.0,16520.0,16520.0,90,8,16520,59,16525,34
2016-07-19 09:55:00,09:55:12,09:55:48,21777,21839,16520.0,59,16525.0,34,16525.0,16525.0,16520.0,16520.0,60,-38,16515,15,16520,29
2016-07-19 09:56:00,09:56:01,09:56:53,21854,21972,16515.0,19,16520.0,34,16515.0,16525.0,16515.0,16520.0,104,-1,16520,6,16525,37
2016-07-19 09:57:00,09:57:00,09:57:54,21982,22151,16520.0,5,16525.0,38,16520.0,16525.0,16520.0,16520.0,179,-34,16515,34,16520,11
2016-07-19 09:58:00,09:58:04,09:58:54,22174,22254,16515.0,25,16520.0,9,16520.0,16520.0,16520.0,16520.0,35,-31,16520,5,16525,15
2016-07-19 09:59:00,09:59:03,09:59:53,22267,22338,16520.0,28,16525.0,4,16525.0,16530.0,16525.0,16530.0,17,15,16525,27,16530,27
2016-07-19 10:00:00,10:00:00,10:00:52,22345,22480,16525.0,32,16530.0,23,16530.0,16530.0,16520.0,16530.0,65,39,16530,15,16535,18
2016-07-19 10:01:00,10:01:04,10:01:59,22500,22709,16530.0,29,16535.0,20,16530.0,16550.0,16530.0,16535.0,225,133,16540,3,16540,3
2016-07-19 10:02:00,10:02:00,10:02:15,22712,22752,16535.0,27,16540.0,1,16540.0,16540.0,16535.0,16540.0,25,5,16540,8,16545,56
2016-07-19 10:03:00,10:03:12,10:03:59,22791,22980,16540.0,12,16545.0,50,16545.0,16560.0,16540.0,16555.0,229,197,16550,32,16555,18
2016-07-19 10:04:00,10:04:00,10:04:26,22983,23024,16550.0,33,16555.0,22,16555.0,16555.0,16555.0,16555.0,9,9,16550,31,16555,12
2016-07-19 10:05:00,10:05:13,10:05:36,23080,23231,16550.0,13,16555.0,29,16550.0,16550.0,16540.0,16545.0,181,-35,16545,17,16550,33
2016-07-19 10:06:00,10:06:28,10:06:59,23272,23356,16545.0,35,16550.0,22,16550.0,16560.0,16550.0,16560.0,63,59,16555,27,16560,14
2016-07-19 10:07:00,10:07:31,10:07:54,23405,23487,16555.0,13,16560.0,34,16555.0,16555.0,16545.0,16555.0,64,-8,16550,38,16555,14
2016-07-19 10:08:00,10:08:06,10:08:59,23508,23751,16550.0,10,16555.0,28,16555.0,16565.0,16555.0,16565.0,261,127,16560,36,16570,30
2016-07-19 10:09:00,10:09:01,10:09:46,23759,23827,16565.0,20,16570.0,25,16565.0,16565.0,16565.0,16565.0,34,-8,16560,34,16565,4
2016-07-19 10:10:00,10:10:04,10:10:49,23846,23927,16560.0,22,16565.0,25,16560.0,16560.0,16555.0,16555.0,57,-55,16550,42,16555,3
2016-07-19 10:11:00,10:11:01,10:11:57,23941,24066,16550.0,38,16555.0,16,16550.0,16560.0,16550.0,16560.0,93,3,16555,35,16560,3
2016-07-19 10:12:00,10:12:04,10:12:36,24075,24126,16555.0,29,16560.0,21,16555.0,16560.0,16550.0,16550.0,21,-19,16550,10,16555,25
2016-07-19 10:13:00,10:13:02,10:13:26,24152,24199,16550.0,27,16555.0,26,16550.0,16550.0,16550.0,16550.0,22,-3,16550,3,16555,39
2016-07-19 10:14:00,10:14:00,10:14:56,24232,24345,16550.0,12,16555.0,35,16550.0,16550.0,16550.0,16550.0,84,-44,16550,8,16555,32
2016-07-19 10:15:00,10:15:24,10:15:59,24374,24443,16550.0,20,16555.0,27,16550.0,16555.0,16550.0,16550.0,38,15,16550,2,16555,33
2016-07-19 10:16:00,10:16:00,10:16:57,24444,24529,16545.0,49,16550.0,5,16550.0,16555.0,16550.0,16555.0,40,36,16550,21,16555,33
2016-07-19 10:17:00,10:17:02,10:17:33,24536,24668,16550.0,17,16555.0,36,16550.0,16550.0,16545.0,16545.0,205,-172,16540,33,16550,29
2016-07-19 10:18:00,10:18:03,10:18:57,24695,24805,16545.0,3,16550.0,28,16545.0,16555.0,16545.0,16550.0,77,2,16550,8,16555,29
2016-07-19 10:19:00,10:19:28,10:19:38,24839,24912,16550.0,24,16555.0,24,16555.0,16555.0,16550.0,16555.0,92,8,16550,36,16555,2
2016-07-19 10:20:00,10:20:14,10:20:24,24938,24988,16550.0,21,16555.0,23,16550.0,16555.0,16550.0,16555.0,49,5,16555,2,16560,42
2016-07-19 10:21:00,10:21:09,10:21:59,25031,25129,16555.0,15,16560.0,28,16555.0,16570.0,16555.0,16570.0,74,32,16565,24,16570,34
2016-07-19 10:22:00,10:22:13,10:22:58,25148,25278,16565.0,25,16570.0,37,16565.0,16565.0,16560.0,16565.0,105,-1,16565,2,16570,46
2016-07-19 10:23:00,10:23:10,10:23:41,25291,25332,16565.0,6,16570.0,44,16565.0,16565.0,16565.0,16565.0,27,9,16565,5,16570,44
2016-07-19 10:24:00,10:24:01,10:24:27,25339,25380,16565.0,7,16570.0,47,16565.0,16565.0,16560.0,16560.0,24,-24,16560,1,16565,46
2016-07-19 10:25:00,10:25:03,10:25:46,25400,25446,16560.0,16,16565.0,46,16560.0,16565.0,16560.0,16565.0,10,-4,16560,26,16565,29
2016-07-19 10:26:00,10:26:02,10:26:54,25457,25625,16560.0,25,16565.0,33,16560.0,16570.0,16560.0,16570.0,216,184,16565,50,16570,2
2016-07-19 10:27:00,10:27:01,10:27:41,25637,25811,16565.0,42,16570.0,10,16570.0,16575.0,16565.0,16565.0,220,-10,16560,38,16565,2
2016-07-19 10:28:00,10:28:19,10:28:59,25857,25947,16560.0,22,16565.0,33,16560.0,16570.0,16560.0,16570.0,64,22,16565,13,16570,44
2016-07-19 10:29:00,10:29:02,10:29:58,25951,26021,16565.0,15,16570.0,44,16565.0,16570.0,16565.0,16570.0,8,-2,16565,33,16570,37
2016-07-19 10:30:00,10:30:02,10:30:55,26032,26190,16565.0,15,16570.0,37,16565.0,16565.0,16555.0,16560.0,151,-105,16560,22,16565,14
2016-07-19 10:31:00,10:31:02,10:31:37,26194,26241,16560.0,32,16565.0,30,16565.0,16570.0,16565.0,16570.0,23,23,16565,44,16570,20
2016-07-19 10:32:00,10:32:04,10:32:04,26272,26272,16565.0,28,16570.0,29,16565.0,16565.0,16565.0,16565.0,1,-1,16565,25,16570,32
2016-07-19 10:33:00,10:33:15,10:33:55,26326,26434,16565.0,36,16570.0,16,16570.0,16575.0,16570.0,16570.0,126,66,16565,20,16570,17
2016-07-19 10:34:00,10:34:01,10:34:54,26444,26490,16565.0,31,16570.0,9,16570.0,16570.0,16570.0,16570.0,17,1,16570,16,16575,27
2016-07-19 10:35:00,10:35:18,10:35:41,26510,26548,16570.0,29,16575.0,17,16570.0,16570.0,16570.0,16570.0,15,-3,16570,10,16575,32
2016-07-19 10:36:00,10:36:35,10:36:45,26580,26614,16570.0,35,16575.0,18,16575.0,16575.0,16575.0,16575.0,29,7,16575,2,16580,33
2016-07-19 10:37:00,10:37:00,10:37:00,0,0,0.0,0,0.0,0,16575.0,16575.0,16575.0,16575.0,0,0,0,0,0,0
2016-07-19 10:38:00,10:38:00,10:38:54,26673,26770,16575.0,19,16580.0,32,16575.0,16590.0,16575.0,16590.0,72,58,16585,34,16590,35
2016-07-19 10:39:00,10:39:04,10:39:48,26778,26894,16585.0,33,16590.0,36,16585.0,16595.0,16585.0,16590.0,175,97,16585,36,16595,35
2016-07-19 10:40:00,10:40:02,10:40:57,26916,27000,16590.0,32,16595.0,15,16595.0,16595.0,16590.0,16595.0,33,31,16595,30,16600,49
2016-07-19 10:41:00,10:41:03,10:41:51,27011,27049,16595.0,39,16600.0,48,16595.0,16600.0,16595.0,16595.0,11,3,16595,55,16600,43
2016-07-19 10:42:00,10:42:01,10:42:59,27056,27393,16595.0,54,16600.0,46,16600.0,16615.0,16595.0,16605.0,435,114,16605,13,16610,31
2016-07-19 10:43:00,10:43:04,10:43:59,27403,27596,16605.0,16,16610.0,40,16605.0,16620.0,16605.0,16615.0,245,127,16610,33,16615,18
2016-07-19 10:44:00,10:44:00,10:44:39,27599,27693,16610.0,33,16615.0,18,16615.0,16615.0,16605.0,16605.0,75,25,16605,23,16610,24
2016-07-19 10:45:00,10:45:00,10:45:57,27710,27860,16605.0,34,16610.0,10,16610.0,16620.0,16610.0,16610.0,140,20,16605,36,16610,11
2016-07-19 10:46:00,10:46:06,10:46:15,27869,27918,16605.0,36,16610.0,3,16610.0,16615.0,16610.0,16615.0,59,37,16610,29,16615,19
2016-07-19 10:47:00,10:47:01,10:47:28,27956,28025,16610.0,14,16615.0,42,16610.0,16610.0,16605.0,16610.0,45,1,16605,34,16610,5
2016-07-19 10:48:00,10:48:08,10:48:53,28039,28151,16605.0,35,16610.0,8,16605.0,16610.0,16600.0,16605.0,146,-46,16605,6,16610,30
2016-07-19 10:49:00,10:49:38,10:49:59,28178,28272,16605.0,35,16610.0,15,16610.0,16615.0,16610.0,16610.0,127,45,16605,33,16615,28
2016-07-19 10:50:00,10:50:01,10:50:51,28277,28409,16605.0,31,16610.0,15,16610.0,16620.0,16610.0,16615.0,106,24,16615,27,16620,17
2016-07-19 10:51:00,10:51:02,10:51:52,28415,28527,16615.0,19,16620.0,22,16615.0,16615.0,16610.0,16610.0,74,-57,16610,16,16615,24
2016-07-19 10:52:00,10:52:04,10:52:43,28542,28596,16610.0,9,16615.0,24,16610.0,16610.0,16605.0,16605.0,23,-19,16600,34,16605,8
2016-07-19 10:53:00,10:53:04,10:53:04,28607,28607,16600.0,21,16605.0,19,16600.0,16600.0,16600.0,16600.0,1,-1,16600,23,16605,22
2016-07-19 10:54:00,10:54:32,10:54:48,28617,28654,16600.0,31,16605.0,19,16605.0,16605.0,16600.0,16605.0,27,7,16605,16,16610,31
2016-07-19 10:55:00,10:55:02,10:55:56,28667,28755,16605.0,23,16610.0,28,16610.0,16610.0,16605.0,16605.0,70,-22,16600,35,16605,5
2016-07-19 10:56:00,10:56:02,10:56:12,28762,28778,16600.0,35,16605.0,3,16600.0,16605.0,16600.0,16605.0,5,1,16605,21,16610,22
2016-07-19 10:57:00,10:57:07,10:57:20,28813,28823,16605.0,36,16610.0,23,16610.0,16610.0,16605.0,16605.0,3,1,16605,28,16610,23
2016-07-19 10:58:00,10:58:03,10:58:59,28841,28858,16605.0,33,16610.0,23,16605.0,16610.0,16605.0,16610.0,2,0,16605,40,16610,24
2016-07-19 10:59:00,10:59:05,10:59:59,28861,28903,16605.0,40,16610.0,24,16610.0,16610.0,16610.0,16610.0,29,29,16610,35,16615,19
2016-07-19 11:00:00,11:00:00,11:00:59,28907,29100,16610.0,36,16615.0,19,16615.0,16620.0,16615.0,16615.0,189,33,16610,46,16615,5
2016-07-19 11:01:00,11:01:00,11:01:38,29104,29159,16610.0,46,16615.0,1,16615.0,16615.0,16615.0,16615.0,45,-19,16615,9,16620,42
2016-07-19 11:02:00,11:02:03,11:02:05,29179,29194,16615.0,23,16620.0,34,16615.0,16615.0,16615.0,16615.0,15,7,16610,44,16620,36
2016-07-19 11:03:00,11:03:24,11:03:24,29235,29235,16610.0,47,16615.0,18,16615.0,16615.0,16615.0,16615.0,1,1,16610,48,16615,13
2016-07-19 11:04:00,11:04:00,11:04:00,0,0,0.0,0,0.0,0,16615.0,16615.0,16615.0,16615.0,0,0,0,0,0,0
2016-07-19 11:05:00,11:05:04,11:05:51,29275,29303,16610.0,53,16615.0,25,16610.0,16615.0,16610.0,16615.0,6,4,16610,55,16615,18
2016-07-19 11:06:00,11:06:12,11:06:51,29315,29387,16610.0,58,16615.0,20,16615.0,16615.0,16600.0,16600.0,61,-53,16600,30,16605,24
2016-07-19 11:07:00,11:07:04,11:07:54,29395,29448,16600.0,30,16605.0,28,16605.0,16605.0,16605.0,16605.0,42,10,16605,20,16610,34
2016-07-19 11:08:00,11:08:05,11:08:11,29453,29483,16605.0,21,16610.0,32,16605.0,16610.0,16605.0,16605.0,27,-19,16600,32,16605,6
2016-07-19 11:09:00,11:09:00,11:09:40,29519,29625,16600.0,23,16605.0,25,16605.0,16610.0,16605.0,16610.0,115,33,16610,13,16615,39
2016-07-19 11:10:00,11:10:04,11:10:38,29633,29669,16610.0,8,16615.0,44,16610.0,16610.0,16610.0,16610.0,30,8,16610,15,16615,40
2016-07-19 11:11:00,11:11:04,11:11:41,29685,29731,16610.0,15,16615.0,39,16610.0,16610.0,16605.0,16605.0,42,-28,16605,35,16610,18
2016-07-19 11:12:00,11:12:37,11:12:59,29752,29760,16605.0,44,16610.0,20,16610.0,16610.0,16610.0,16610.0,2,2,16605,41,16610,14
2016-07-19 11:13:00,11:13:01,11:13:38,29762,29807,16605.0,43,16610.0,14,16610.0,16615.0,16610.0,16615.0,42,42,16610,28,16615,32
2016-07-19 11:14:00,11:14:08,11:14:37,29818,29873,16610.0,21,16615.0,39,16615.0,16615.0,16610.0,16610.0,70,-66,16605,34,16610,11
2016-07-19 11:15:00,11:15:06,11:15:59,29894,29945,16605.0,18,16610.0,34,16605.0,16610.0,16605.0,16605.0,27,-17,16605,15,16610,29
2016-07-19 11:16:00,11:16:10,11:16:43,29958,29993,16605.0,8,16610.0,32,16605.0,16610.0,16605.0,16605.0,9,-7,16605,14,16610,32
2016-07-19 11:17:00,11:17:04,11:17:59,30007,30049,16600.0,51,16605.0,8,16600.0,16605.0,16600.0,16605.0,30,26,16605,11,16610,31
2016-07-19 11:18:00,11:18:38,11:18:39,30070,30077,16605.0,8,16610.0,31,16610.0,16610.0,16610.0,16610.0,4,4,16605,7,16610,26
2016-07-19 11:19:00,11:19:08,11:19:39,30084,30108,16605.0,7,16610.0,30,16610.0,16610.0,16610.0,16610.0,8,8,16605,33,16610,20
2016-07-19 11:20:00,11:20:03,11:20:51,30117,30169,16605.0,30,16610.0,28,16605.0,16610.0,16605.0,16605.0,25,-5,16605,24,16610,24
2016-07-19 11:21:00,11:21:08,11:21:28,30179,30184,16605.0,25,16610.0,24,16610.0,16610.0,16605.0,16605.0,3,1,16605,40,16610,9
2016-07-19 11:22:00,11:22:01,11:22:51,30198,30247,16605.0,22,16610.0,23,16605.0,16605.0,16605.0,16605.0,31,-13,16605,13,16610,27
2016-07-19 11:23:00,11:23:00,11:23:57,30258,30292,16605.0,6,16610.0,30,16605.0,16605.0,16605.0,16605.0,18,6,16600,47,16605,2
2016-07-19 11:24:00,11:24:00,11:24:00,0,0,0.0,0,0.0,0,16605.0,16605.0,16605.0,16605.0,0,0,0,0,0,0
2016-07-19 11:25:00,11:25:00,11:25:46,30318,30469,16600.0,44,16605.0,25,16600.0,16600.0,16595.0,16595.0,144,-136,16595,12,16600,41
2016-07-19 11:26:00,11:26:17,11:26:37,30493,30502,16595.0,19,16600.0,40,16595.0,16600.0,16595.0,16600.0,3,-1,16595,19,16600,36
2016-07-19 11:27:00,11:27:00,11:27:00,0,0,0.0,0,0.0,0,16600.0,16600.0,16600.0,16600.0,0,0,0,0,0,0
2016-07-19 11:28:00,11:28:41,11:28:55,30568,30600,16595.0,15,16600.0,32,16595.0,16595.0,16595.0,16595.0,22,-4,16595,9,16600,31
2016-07-19 11:29:00,11:29:08,11:29:57,30612,30694,16595.0,10,16600.0,31,16595.0,16595.0,16590.0,16590.0,64,-20,16590,25,16595,20
2016-07-19 11:30:00,11:30:00,11:30:37,30701,30916,16590.0,29,16595.0,20,16590.0,16590.0,16585.0,16590.0,268,-52,16585,23,16590,20
2016-07-19 11:31:00,11:31:00,11:31:57,30945,31163,16585.0,19,16590.0,32,16590.0,16595.0,16575.0,16585.0,210,34,16585,19,16585,17
2016-07-19 11:32:00,11:32:00,11:32:21,31166,31243,16580.0,30,16585.0,23,16585.0,16590.0,16585.0,16585.0,79,29,16585,13,16590,28
2016-07-19 11:33:00,11:33:00,11:33:00,31253,31260,16585.0,12,16590.0,38,16585.0,16585.0,16585.0,16585.0,12,-12,16580,28,16585,15
2016-07-19 11:34:00,11:34:01,11:34:50,31304,31341,16580.0,18,16585.0,24,16580.0,16585.0,16580.0,16580.0,18,-16,16580,5,16585,26
2016-07-19 11:35:00,11:35:12,11:35:16,31354,31376,16580.0,24,16585.0,24,16585.0,16585.0,16585.0,16585.0,21,21,16585,15,16590,32
2016-07-19 11:36:00,11:36:01,11:36:51,31411,31592,16580.0,24,16585.0,28,16585.0,16595.0,16585.0,16595.0,175,101,16590,12,16595,44
2016-07-19 11:37:00,11:37:01,11:37:57,31605,31727,16590.0,25,16595.0,22,16595.0,16600.0,16590.0,16595.0,108,32,16590,31,16600,35
2016-07-19 11:38:00,11:38:01,11:38:51,31732,31785,16590.0,32,16595.0,10,16595.0,16595.0,16595.0,16595.0,16,16,16590,32,16595,7
2016-07-19 11:39:00,11:39:01,11:39:57,31797,31939,16590.0,17,16595.0,38,16595.0,16595.0,16590.0,16590.0,108,20,16585,29,16590,25
2016-07-19 11:40:00,11:40:01,11:40:58,31951,32090,16585.0,24,16590.0,25,16590.0,16590.0,16585.0,16590.0,92,-3,16585,22,16590,18
2016-07-19 11:41:00,11:41:01,11:41:58,32095,32197,16585.0,31,16590.0,14,16590.0,16595.0,16590.0,16595.0,59,19,16590,33,16595,18
2016-07-19 11:42:00,11:42:02,11:42:56,32200,32398,16590.0,32,16595.0,20,16595.0,16595.0,16580.0,16590.0,217,58,16590,3,16595,32
2016-07-19 11:43:00,11:43:02,11:43:52,32403,32506,16590.0,20,16595.0,29,16595.0,16600.0,16595.0,16600.0,60,34,16595,42,16600,10
2016-07-19 11:44:00,11:44:02,11:44:57,32514,32715,16595.0,40,16600.0,17,16600.0,16605.0,16600.0,16605.0,188,137,16600,30,16605,9
2016-07-19 11:45:00,11:45:02,11:45:52,32721,32843,16600.0,29,16605.0,19,16605.0,16610.0,16605.0,16605.0,104,14,16600,26,16605,35
2016-07-19 11:46:00,11:46:02,11:46:52,32848,32894,16600.0,15,16605.0,40,16605.0,16605.0,16600.0,16605.0,15,13,16600,39,16605,12
2016-07-19 11:47:00,11:47:02,11:47:53,32915,33026,16600.0,32,16605.0,23,16605.0,16605.0,16590.0,16595.0,139,-65,16590,37,16595,2
2016-07-19 11:48:00,11:48:02,11:48:59,33040,33173,16590.0,37,16595.0,16,16595.0,16600.0,16595.0,16595.0,115,23,16595,1,16600,29
2016-07-19 11:49:00,11:49:00,11:49:59,33175,33255,16595.0,1,16600.0,32,16595.0,16600.0,16595.0,16595.0,39,-4,16595,1,16600,35
2016-07-19 11:50:00,11:50:03,11:50:53,33258,33334,16595.0,1,16600.0,35,16600.0,16600.0,16590.0,16595.0,31,13,16595,21,16600,33
2016-07-19 11:51:00,11:51:03,11:51:57,33338,33402,16595.0,16,16600.0,33,16600.0,16600.0,16595.0,16595.0,25,5,16590,28,16595,17
2016-07-19 11:52:00,11:52:03,11:52:53,33408,33519,16590.0,28,16595.0,20,16595.0,16595.0,16580.0,16590.0,63,-3,16585,38,16590,37
2016-07-19 11:53:00,11:53:03,11:53:57,33537,33605,16585.0,46,16590.0,30,16590.0,16590.0,16585.0,16585.0,15,13,16585,42,16590,16
2016-07-19 11:54:00,11:54:03,11:54:53,33611,33699,16585.0,43,16590.0,16,16590.0,16590.0,16585.0,16590.0,62,-32,16585,11,16590,24
2016-07-19 11:55:00,11:55:00,11:55:55,33710,33869,16585.0,33,16590.0,18,16590.0,16605.0,16590.0,16605.0,112,47,16600,53,16605,19
2016-07-19 11:56:00,11:56:01,11:56:35,33877,33944,16600.0,55,16605.0,25,16605.0,16605.0,16590.0,16590.0,49,-45,16590,7,16595,38
2016-07-19 11:57:00,11:57:01,11:57:43,33969,34054,16590.0,40,16595.0,23,16595.0,16600.0,16590.0,16595.0,71,33,16590,37,16600,63
2016-07-19 11:58:00,11:58:12,11:58:54,34088,34307,16590.0,33,16595.0,29,16590.0,16595.0,16580.0,16590.0,223,-19,16585,35,16590,8
2016-07-19 11:59:00,11:59:03,11:59:44,34324,34397,16590.0,4,16595.0,28,16590.0,16595.0,16590.0,16590.0,39,7,16590,10,16595,37
2016-07-19 12:00:00,12:00:03,12:00:51,34405,34497,16590.0,18,16595.0,33,16590.0,16600.0,16590.0,16595.0,83,-3,16590,36,16600,57
2016-07-19 12:01:00,12:01:05,12:01:54,34503,34559,16595.0,10,16600.0,57,16595.0,16600.0,16590.0,16600.0,36,6,16595,20,16595,6
2016-07-19 12:02:00,12:02:05,12:02:33,34562,34612,16590.0,28,16595.0,7,16595.0,16595.0,16590.0,16590.0,21,-7,16585,21,16590,12
2016-07-19 12:03:00,12:03:20,12:03:24,34657,34672,16585.0,29,16590.0,12,16590.0,16590.0,16590.0,16590.0,13,11,16590,27,16595,35
2016-07-19 12:04:00,12:04:03,12:04:11,34687,34719,16590.0,24,16595.0,32,16590.0,16590.0,16590.0,16590.0,35,0,16585,27,16590,6
2016-07-19 12:05:00,12:05:00,12:05:43,34741,34790,16585.0,14,16590.0,28,16585.0,16585.0,16585.0,16585.0,21,-18,16585,13,16590,26
2016-07-19 12:06:00,12:06:05,12:06:57,34809,34939,16585.0,14,16590.0,24,16585.0,16595.0,16580.0,16595.0,147,7,16590,42,16595,14
2016-07-19 12:07:00,12:07:07,12:07:40,34954,35024,16590.0,36,16595.0,23,16590.0,16595.0,16590.0,16590.0,31,3,16590,14,16595,25
2016-07-19 12:08:00,12:08:56,12:08:59,35083,35094,16590.0,18,16595.0,28,16590.0,16590.0,16590.0,16590.0,15,-14,16590,10,16595,33
2016-07-19 12:09:00,12:09:01,12:09:57,35100,35176,16590.0,4,16595.0,34,16590.0,16590.0,16590.0,16590.0,60,-6,16585,34,16595,33
2016-07-19 12:10:00,12:10:04,12:10:33,35192,35272,16590.0,2,16595.0,30,16590.0,16600.0,16590.0,16600.0,91,74,16595,31,16605,25
2016-07-19 12:11:00,12:11:18,12:11:50,35310,35338,16595.0,22,16600.0,23,16600.0,16600.0,16595.0,16595.0,13,11,16595,25,16600,20
2016-07-19 12:12:00,12:12:02,12:12:02,35347,35347,16595.0,10,16600.0,26,16595.0,16595.0,16595.0,16595.0,1,-1,16595,12,16600,24
2016-07-19 12:13:00,12:13:07,12:13:42,35372,35389,16595.0,13,16600.0,31,16595.0,16595.0,16595.0,16595.0,6,-6,16595,14,16600,28
2016-07-19 12:14:00,12:14:10,12:14:10,35406,35408,16595.0,18,16600.0,29,16595.0,16595.0,16595.0,16595.0,3,-3,16595,12,16600,33
2016-07-19 12:15:00,12:15:04,12:15:04,35429,35429,16595.0,24,16600.0,30,16595.0,16595.0,16595.0,16595.0,1,-1,16595,25,16600,29
2016-07-19 12:16:00,12:16:23,12:16:48,35464,35579,16595.0,25,16600.0,35,16600.0,16600.0,16585.0,16590.0,103,-33,16590,11,16595,33
2016-07-19 12:17:00,12:17:02,12:17:50,35587,35651,16590.0,18,16595.0,34,16590.0,16590.0,16585.0,16590.0,41,-21,16585,31,16590,12
2016-07-19 12:18:00,12:18:05,12:18:53,35667,35719,16585.0,30,16590.0,22,16585.0,16585.0,16585.0,16585.0,3,-3,16585,22,16590,24
2016-07-19 12:19:00,12:19:04,12:19:42,35733,35811,16585.0,18,16590.0,32,16585.0,16585.0,16580.0,16585.0,70,-40,16585,7,16590,35
2016-07-19 12:20:00,12:20:16,12:20:42,35854,35889,16585.0,21,16590.0,19,16585.0,16590.0,16585.0,16590.0,24,-4,16585,17,16590,25
2016-07-19 12:21:00,12:21:20,12:21:26,35930,35957,16585.0,25,16590.0,19,16590.0,16590.0,16590.0,16590.0,23,7,16585,30,16590,9
2016-07-19 12:22:00,12:22:25,12:22:55,35994,36011,16585.0,21,16590.0,14,16590.0,16590.0,16590.0,16590.0,3,3,16585,11,16590,17
2016-07-19 12:23:00,12:23:15,12:23:30,36018,36047,16585.0,11,16590.0,24,16585.0,16585.0,16580.0,16580.0,12,-10,16580,16,16585,19
2016-07-19 12:24:00,12:24:10,12:24:17,36070,36080,16580.0,33,16585.0,9,16585.0,16585.0,16585.0,16585.0,14,-6,16580,32,16585,28
2016-07-19 12:25:00,12:25:04,12:25:54,36113,36369,16580.0,27,16585.0,43,16580.0,16580.0,16565.0,16570.0,306,-109,16570,6,16575,38
2016-07-19 12:26:00,12:26:00,12:26:23,36374,36424,16570.0,8,16575.0,42,16570.0,16575.0,16570.0,16575.0,41,25,16570,31,16575,14
2016-07-19 12:27:00,12:27:00,12:27:50,36453,36553,16570.0,22,16575.0,29,16570.0,16580.0,16570.0,16580.0,90,48,16575,36,16580,14
2016-07-19 12:28:00,12:28:00,12:28:20,36577,36610,16575.0,45,16580.0,2,16580.0,16580.0,16575.0,16575.0,43,-41,16570,44,16580,39
2016-07-19 12:29:00,12:29:21,12:29:44,36663,36800,16570.0,27,16575.0,26,16570.0,16570.0,16565.0,16570.0,187,-117,16565,36,16575,46
2016-07-19 12:30:00,12:30:00,12:30:48,36814,36948,16570.0,32,16575.0,26,16570.0,16580.0,16570.0,16570.0,100,7,16565,47,16575,47
2016-07-19 12:31:00,12:31:04,12:31:42,36971,37058,16570.0,46,16575.0,19,16570.0,16580.0,16570.0,16580.0,79,13,16575,72,16580,10
2016-07-19 12:32:00,12:32:02,12:32:59,37080,37243,16575.0,38,16580.0,52,16575.0,16580.0,16570.0,16580.0,230,15,16580,15,16585,66
2016-07-19 12:33:00,12:33:04,12:33:04,37251,37251,16580.0,37,16585.0,53,16580.0,16580.0,16580.0,16580.0,2,-2,16580,36,16585,39
2016-07-19 12:34:00,12:34:06,12:34:51,37285,37324,16580.0,37,16585.0,63,16580.0,16585.0,16580.0,16585.0,5,-3,16580,33,16585,66
2016-07-19 12:35:00,12:35:06,12:35:41,37337,37430,16580.0,41,16585.0,51,16585.0,16585.0,16585.0,16585.0,82,46,16585,10,16590,40
2016-07-19 12:36:00,12:36:00,12:36:50,37440,37507,16585.0,23,16590.0,40,16590.0,16590.0,16585.0,16590.0,17,13,16585,33,16590,20
2016-07-19 12:37:00,12:37:00,12:37:51,37519,37577,16585.0,33,16590.0,32,16590.0,16590.0,16585.0,16590.0,20,10,16585,32,16590,17
2016-07-19 12:38:00,12:38:01,12:38:51,37583,37663,16585.0,33,16590.0,23,16590.0,16590.0,16585.0,16590.0,24,6,16585,46,16590,13
2016-07-19 12:39:00,12:39:01,12:39:51,37672,37752,16585.0,26,16590.0,32,16590.0,16590.0,16585.0,16590.0,50,14,16585,36,16590,37
2016-07-19 12:40:00,12:40:01,12:40:55,37765,37848,16585.0,36,16590.0,32,16590.0,16595.0,16585.0,16590.0,83,43,16585,47,16590,15
2016-07-19 12:41:00,12:41:01,12:41:56,37859,37963,16585.0,49,16590.0,20,16590.0,16595.0,16585.0,16590.0,85,7,16585,49,16595,42
2016-07-19 12:42:00,12:42:01,12:42:51,37966,38012,16585.0,50,16595.0,43,16590.0,16590.0,16590.0,16590.0,30,22,16585,49,16590,6
2016-07-19 12:43:00,12:43:01,12:43:56,38023,38133,16585.0,48,16590.0,13,16590.0,16595.0,16590.0,16590.0,120,34,16590,12,16595,63
2016-07-19 12:44:00,12:44:00,12:44:59,38136,38291,16590.0,12,16595.0,63,16590.0,16595.0,16590.0,16595.0,181,91,16590,62,16595,1
2016-07-19 12:45:00,12:45:00,12:45:53,38293,38497,16590.0,64,16595.0,1,16595.0,16600.0,16595.0,16600.0,234,112,16595,46,16600,2
2016-07-19 12:46:00,12:46:00,12:46:58,38501,38670,16595.0,50,16600.0,2,16600.0,16605.0,16585.0,16585.0,207,-96,16585,14,16590,66
2016-07-19 12:47:00,12:47:00,12:47:52,38676,38795,16585.0,24,16590.0,65,16585.0,16600.0,16585.0,16600.0,145,72,16595,37,16600,27
2016-07-19 12:48:00,12:48:02,12:48:59,38801,38941,16595.0,39,16600.0,27,16600.0,16610.0,16600.0,16605.0,134,33,16600,32,16605,14
2016-07-19 12:49:00,12:49:02,12:49:57,38948,39008,16600.0,31,16605.0,25,16605.0,16610.0,16605.0,16605.0,36,16,16600,40,16605,9
2016-07-19 12:50:00,12:50:00,12:50:53,39015,39186,16600.0,39,16605.0,15,16600.0,16615.0,16600.0,16610.0,224,24,16610,5,16615,44
2016-07-19 12:51:00,12:51:03,12:51:53,39198,39253,16610.0,28,16615.0,44,16615.0,16615.0,16615.0,16615.0,19,19,16610,31,16615,51
2016-07-19 12:52:00,12:52:03,12:52:53,39259,39415,16610.0,26,16615.0,51,16615.0,16615.0,16605.0,16615.0,164,-4,16610,24,16615,47
2016-07-19 12:53:00,12:53:01,12:53:53,39426,39502,16610.0,27,16615.0,47,16610.0,16615.0,16610.0,16615.0,20,12,16610,31,16615,58
2016-07-19 12:54:00,12:54:03,12:54:53,39517,39718,16610.0,43,16615.0,45,16615.0,16625.0,16615.0,16620.0,243,145,16615,39,16620,70
2016-07-19 12:55:00,12:55:03,12:55:54,39722,39796,16615.0,39,16620.0,84,16620.0,16625.0,16620.0,16625.0,70,70,16620,39,16625,18
2016-07-19 12:56:00,12:56:00,12:56:47,39801,39886,16620.0,49,16625.0,19,16625.0,16630.0,16620.0,16620.0,56,54,16620,41,16625,19
2016-07-19 12:57:00,12:57:00,12:57:00,0,0,0.0,0,0.0,0,16620.0,16620.0,16620.0,16620.0,0,0,0,0,0,0
2016-07-19 12:58:00,12:58:19,12:58:35,39944,39999,16620.0,49,16625.0,23,16625.0,16625.0,16615.0,16615.0,39,-35,16615,43,16620,31
2016-07-19 12:59:00,12:59:14,12:59:59,40045,40258,16615.0,40,16620.0,31,16615.0,16615.0,16605.0,16605.0,324,24,16605,8,16610,54
2016-07-19 13:00:00,13:00:00,13:00:51,40261,40442,16605.0,8,16610.0,54,16610.0,16610.0,16600.0,16605.0,198,-42,16605,6,16610,38
2016-07-19 13:01:00,13:01:28,13:01:39,40469,40484,16605.0,15,16610.0,38,16610.0,16610.0,16605.0,16610.0,3,1,16605,29,16610,27
2016-07-19 13:02:00,13:02:10,13:02:49,40520,40596,16605.0,37,16610.0,17,16610.0,16615.0,16610.0,16615.0,50,14,16615,1,16620,39
2016-07-19 13:03:00,13:03:16,13:03:56,40622,40692,16615.0,11,16620.0,41,16615.0,16615.0,16615.0,16615.0,47,17,16610,54,16615,23
2016-07-19 13:04:00,13:04:00,13:04:33,40700,40735,16610.0,50,16615.0,14,16615.0,16615.0,16615.0,16615.0,37,5,16615,18,16620,47
2016-07-19 13:05:00,13:05:13,13:05:57,40766,40857,16615.0,51,16620.0,17,16620.0,16625.0,16620.0,16625.0,71,33,16625,32,16630,79
2016-07-19 13:06:00,13:06:01,13:06:58,40867,41042,16625.0,32,16630.0,73,16630.0,16630.0,16620.0,16620.0,216,51,16615,54,16625,45
2016-07-19 13:07:00,13:07:00,13:07:35,41046,41151,16615.0,54,16625.0,46,16620.0,16625.0,16620.0,16620.0,83,-15,16620,17,16625,43
2016-07-19 13:08:00,13:08:04,13:08:35,41177,41252,16620.0,26,16625.0,45,16620.0,16620.0,16615.0,16615.0,70,-12,16610,32,16615,21
2016-07-19 13:09:00,13:09:08,13:09:56,41284,41353,16610.0,29,16615.0,33,16610.0,16615.0,16610.0,16610.0,43,-31,16610,13,16615,44
2016-07-19 13:10:00,13:10:02,13:10:46,41367,41407,16610.0,27,16615.0,43,16615.0,16615.0,16615.0,16615.0,19,17,16615,17,16620,42
2016-07-19 13:11:00,13:11:04,13:11:16,41412,41451,16615.0,18,16620.0,41,16615.0,16615.0,16615.0,16615.0,60,28,16610,35,16615,12
2016-07-19 13:12:00,13:12:41,13:12:56,41501,41515,16610.0,42,16615.0,12,16610.0,16615.0,16610.0,16615.0,4,2,16610,45,16615,13
2016-07-19 13:13:00,13:13:24,13:13:56,41549,41584,16610.0,40,16615.0,18,16610.0,16615.0,16610.0,16615.0,13,9,16615,19,16620,32
2016-07-19 13:14:00,13:14:06,13:14:58,41600,41653,16615.0,34,16620.0,25,16615.0,16620.0,16615.0,16620.0,6,2,16615,40,16620,18
2016-07-19 13:15:00,13:15:00,13:15:57,41657,41771,16615.0,42,16620.0,18,16620.0,16630.0,16620.0,16630.0,95,80,16625,29,16630,39
2016-07-19 13:16:00,13:16:01,13:16:40,41779,41888,16625.0,36,16630.0,32,16630.0,16635.0,16630.0,16635.0,86,46,16635,35,16640,39
2016-07-19 13:17:00,13:17:04,13:17:58,41917,42235,16635.0,58,16640.0,34,16640.0,16650.0,16625.0,16625.0,409,57,16625,17,16630,37
2016-07-19 13:18:00,13:18:00,13:18:59,42242,42491,16625.0,16,16630.0,34,16625.0,16640.0,16620.0,16640.0,206,-46,16635,7,16640,31
2016-07-19 13:19:00,13:19:00,13:19:57,42495,42615,16635.0,5,16640.0,31,16640.0,16640.0,16635.0,16640.0,55,29,16635,23,16640,2
2016-07-19 13:20:00,13:20:02,13:20:38,42624,42760,16635.0,25,16640.0,9,16640.0,16645.0,16640.0,16640.0,90,14,16640,4,16645,28
2016-07-19 13:21:00,13:21:00,13:21:50,42793,42929,16640.0,3,16645.0,29,16640.0,16645.0,16635.0,16640.0,69,1,16640,16,16645,42
2016-07-19 13:22:00,13:22:08,13:22:44,42944,43243,16640.0,27,16645.0,23,16645.0,16670.0,16645.0,16655.0,500,278,16655,14,16660,27
2016-07-19 13:23:00,13:23:03,13:23:59,43271,43566,16655.0,24,16660.0,17,16660.0,16675.0,16660.0,16670.0,398,258,16665,73,16670,38
2016-07-19 13:24:00,13:24:01,13:24:58,43571,43781,16665.0,58,16670.0,9,16670.0,16675.0,16670.0,16675.0,200,46,16670,23,16675,17
2016-07-19 13:25:00,13:25:03,13:25:54,43794,43889,16670.0,17,16675.0,17,16675.0,16675.0,16665.0,16665.0,37,-11,16660,36,16665,39
2016-07-19 13:26:00,13:26:05,13:26:47,43903,44009,16660.0,30,16665.0,38,16665.0,16675.0,16665.0,16670.0,113,24,16665,41,16670,37
2016-07-19 13:27:00,13:27:01,13:27:55,44035,44128,16665.0,4,16670.0,45,16665.0,16665.0,16665.0,16665.0,61,-31,16665,7,16670,46
2016-07-19 13:28:00,13:28:01,13:28:58,44136,44239,16665.0,20,16670.0,53,16665.0,16665.0,16660.0,16665.0,85,-5,16665,10,16670,52
2016-07-19 13:29:00,13:29:00,13:29:57,44245,44290,16665.0,12,16670.0,52,16670.0,16670.0,16670.0,16670.0,31,31,16670,36,16675,17
2016-07-19 13:30:00,13:30:02,13:30:45,44305,44419,16670.0,59,16675.0,15,16675.0,16680.0,16675.0,16675.0,216,158,16675,46,16680,16
2016-07-19 13:31:00,13:31:01,13:31:46,44442,44703,16675.0,54,16680.0,17,16680.0,16685.0,16680.0,16685.0,429,37,16680,79,16690,120
2016-07-19 13:32:00,13:32:08,13:32:59,44735,44929,16680.0,31,16685.0,45,16685.0,16690.0,16685.0,16690.0,252,79,16685,54,16690,13
2016-07-19 13:33:00,13:33:06,13:33:59,44936,45133,16685.0,54,16690.0,30,16690.0,16700.0,16685.0,16690.0,254,58,16685,53,16690,2
2016-07-19 13:34:00,13:34:00,13:34:59,45136,45368,16685.0,53,16690.0,2,16690.0,16700.0,16690.0,16695.0,229,51,16695,8,16700,44
2016-07-19 13:35:00,13:35:01,13:35:59,45373,45603,16695.0,3,16700.0,46,16695.0,16700.0,16685.0,16685.0,263,-13,16685,13,16690,36
2016-07-19 13:36:00,13:36:04,13:36:59,45609,45809,16685.0,4,16690.0,36,16685.0,16690.0,16680.0,16685.0,301,53,16680,44,16685,15
2016-07-19 13:37:00,13:37:11,13:37:59,45826,45919,16680.0,40,16685.0,20,16680.0,16680.0,16675.0,16680.0,60,-6,16675,43,16680,50
2016-07-19 13:38:00,13:38:01,13:38:59,45925,46052,16675.0,34,16680.0,54,16680.0,16690.0,16680.0,16685.0,136,38,16680,36,16685,50
2016-07-19 13:39:00,13:39:03,13:39:58,46060,46193,16680.0,45,16685.0,40,16680.0,16690.0,16680.0,16690.0,93,-17,16690,11,16695,56
2016-07-19 13:40:00,13:40:01,13:40:51,46198,46329,16690.0,2,16695.0,56,16690.0,16695.0,16685.0,16685.0,143,-7,16680,43,16685,14
2016-07-19 13:41:00,13:41:01,13:41:47,46345,46460,16680.0,35,16685.0,24,16680.0,16685.0,16680.0,16685.0,92,-46,16680,51,16685,21
2016-07-19 13:42:00,13:42:59,13:42:59,46528,46540,16680.0,40,16685.0,31,16685.0,16685.0,16685.0,16685.0,22,22,16685,11,16690,39
2016-07-19 13:43:00,13:43:03,13:43:54,46549,46639,16685.0,16,16690.0,39,16685.0,16685.0,16685.0,16685.0,93,-22,16685,5,16685,1
2016-07-19 13:44:00,13:44:00,13:44:52,46641,46734,16680.0,49,16685.0,1,16685.0,16685.0,16680.0,16685.0,51,23,16680,45,16685,7
2016-07-19 13:45:00,13:45:02,13:45:59,46751,46972,16680.0,38,16685.0,10,16685.0,16685.0,16675.0,16680.0,283,10,16680,28,16685,56
2016-07-19 13:46:00,13:46:06,13:46:54,46983,47070,16680.0,20,16685.0,56,16680.0,16680.0,16675.0,16675.0,62,-40,16675,4,16680,38
2016-07-19 13:47:00,13:47:10,13:47:59,47100,47176,16675.0,27,16680.0,36,16675.0,16675.0,16675.0,16675.0,97,47,16670,45,16675,25
2016-07-19 13:48:00,13:48:00,13:48:17,47178,47233,16670.0,46,16675.0,25,16675.0,16680.0,16675.0,16675.0,69,29,16670,48,16675,8
2016-07-19 13:49:00,13:49:29,13:49:54,47307,47526,16670.0,49,16675.0,65,16670.0,16680.0,16670.0,16680.0,386,60,16680,11,16685,61
2016-07-19 13:50:00,13:50:16,13:50:34,47546,47682,16680.0,37,16685.0,66,16685.0,16690.0,16685.0,16690.0,196,122,16690,4,16695,69
2016-07-19 13:51:00,13:51:17,13:51:49,47740,47850,16690.0,62,16695.0,76,16695.0,16700.0,16690.0,16695.0,167,-27,16690,75,16695,1
2016-07-19 13:52:00,13:52:08,13:52:59,47889,48031,16690.0,62,16695.0,40,16695.0,16695.0,16690.0,16695.0,88,48,16690,39,16695,68
2016-07-19 13:53:00,13:53:07,13:53:59,48052,48259,16690.0,44,16695.0,67,16695.0,16705.0,16690.0,16705.0,211,89,16700,60,16705,45
2016-07-19 13:54:00,13:54:07,13:54:49,48278,48478,16700.0,63,16705.0,45,16700.0,16705.0,16700.0,16705.0,275,133,16700,63,16705,30
2016-07-19 13:55:00,13:55:00,13:55:59,48505,48730,16700.0,61,16705.0,29,16705.0,16705.0,16695.0,16700.0,234,-160,16695,54,16700,51
2016-07-19 13:56:00,13:56:01,13:56:59,48736,48986,16695.0,64,16700.0,51,16695.0,16705.0,16690.0,16695.0,250,-16,16690,63,16700,54
2016-07-19 13:57:00,13:57:00,13:57:59,48987,49188,16695.0,8,16700.0,55,16695.0,16705.0,16695.0,16705.0,179,39,16700,59,16705,5
2016-07-19 13:58:00,13:58:00,13:58:56,49191,49439,16700.0,60,16705.0,10,16700.0,16710.0,16700.0,16710.0,338,292,16705,65,16710,15
2016-07-19 13:59:00,13:59:00,13:59:59,49452,50001,16705.0,26,16710.0,53,16705.0,16710.0,16695.0,16705.0,888,-138,16705,28,16710,39
2016-07-19 14:00:00,14:00:00,14:00:50,50002,50695,16700.0,51,16705.0,16,16710.0,16715.0,16695.0,16695.0,1340,76,16690,39,16695,55
2016-07-19 14:01:00,14:01:02,14:01:40,50711,50987,16690.0,53,16695.0,59,16695.0,16700.0,16690.0,16690.0,510,200,16690,76,16695,52
2016-07-19 14:02:00,14:02:00,14:02:54,51021,51251,16690.0,87,16695.0,40,16695.0,16705.0,16690.0,16700.0,332,-2,16700,25,16705,149
2016-07-19 14:03:00,14:03:00,14:03:59,51263,51477,16700.0,134,16705.0,156,16705.0,16705.0,16690.0,16690.0,266,-74,16685,67,16690,23
2016-07-19 14:04:00,14:04:01,14:04:58,51485,51682,16685.0,29,16690.0,76,16685.0,16695.0,16685.0,16695.0,291,205,16695,18,16700,91
2016-07-19 14:05:00,14:05:00,14:05:58,51689,51877,16695.0,41,16700.0,86,16695.0,16695.0,16685.0,16690.0,286,-20,16690,37,16695,71
2016-07-19 14:06:00,14:06:01,14:06:53,51890,51994,16690.0,73,16695.0,47,16695.0,16695.0,16690.0,16690.0,111,-93,16690,38,16695,70
2016-07-19 14:07:00,14:07:05,14:07:58,52008,52228,16690.0,37,16695.0,67,16690.0,16690.0,16680.0,16685.0,354,-202,16680,50,16685,15
2016-07-19 14:08:00,14:08:01,14:08:51,52235,52507,16680.0,52,16685.0,27,16680.0,16680.0,16675.0,16675.0,567,-321,16670,62,16675,21
2016-07-19 14:09:00,14:09:00,14:09:59,52520,52742,16670.0,46,16675.0,62,16675.0,16685.0,16670.0,16680.0,261,47,16680,10,16685,106
