,ST,ET,sidx,eidx,bB,bBS,bA,bAS,O,H,L,C,V,OF,eB,eBS,eA,eAS
2016-06-15 08:00:00,08:00:00,08:00:59,1870,2278,15750.0,7,15755.0,5,15750.0,15765.0,15745.0,15765.0,488,56,15760,49,15765,13
2016-06-15 08:01:00,08:01:00,08:01:59,2281,2729,15760.0,49,15765.0,13,15765.0,15800.0,15765.0,15800.0,713,528,15795,74,15800,1
2016-06-15 08:02:00,08:02:00,08:02:59,2732,3195,15795.0,74,15800.0,1,15800.0,15815.0,15785.0,15785.0,566,213,15785,46,15790,13
2016-06-15 08:03:00,08:03:07,08:03:51,3214,3397,15785.0,49,15790.0,17,15785.0,15810.0,15785.0,15810.0,177,53,15805,45,15810,20
2016-06-15 08:04:00,08:04:01,08:04:59,3416,3694,15805.0,29,15810.0,40,15805.0,15805.0,15775.0,15775.0,284,-119,15770,13,15775,25
2016-06-15 08:05:00,08:05:00,08:05:54,3697,4024,15770.0,13,15775.0,25,15770.0,15795.0,15770.0,15795.0,345,159,15795,10,15800,29
2016-06-15 08:06:00,08:06:01,08:06:58,4043,4385,15795.0,45,15800.0,20,15800.0,15805.0,15795.0,15805.0,356,183,15805,3,15810,61
2016-06-15 08:07:00,08:07:03,08:07:45,4400,4663,15805.0,30,15810.0,53,15810.0,15810.0,15800.0,15800.0,218,8,15800,21,15805,39
2016-06-15 08:08:00,08:08:00,08:08:59,4692,4917,15800.0,38,15805.0,33,15805.0,15805.0,15795.0,15795.0,174,-4,15790,26,15795,6
2016-06-15 08:09:00,08:09:11,08:09:56,4931,5128,15790.0,15,15795.0,20,15790.0,15790.0,15770.0,15770.0,132,-34,15770,6,15775,31
2016-06-15 08:10:00,08:10:04,08:10:55,5152,5466,15770.0,10,15775.0,38,15770.0,15770.0,15750.0,15750.0,317,-85,15745,30,15750,2
2016-06-15 08:11:00,08:11:00,08:11:59,5483,5825,15745.0,18,15750.0,21,15745.0,15750.0,15735.0,15740.0,299,9,15740,3,15745,34
2016-06-15 08:12:00,08:12:00,08:12:59,5826,6209,15735.0,20,15740.0,32,15740.0,15745.0,15725.0,15735.0,449,-215,15730,29,15735,12
2016-06-15 08:13:00,08:13:24,08:13:58,6262,6421,15730.0,16,15735.0,32,15735.0,15735.0,15730.0,15735.0,121,62,15730,30,15735,7
2016-06-15 08:14:00,08:14:06,08:14:56,6430,6667,15735.0,4,15740.0,32,15740.0,15755.0,15740.0,15745.0,277,147,15740,17,15745,19
2016-06-15 08:15:00,08:15:00,08:15:57,6675,7171,15740.0,27,15745.0,13,15740.0,15740.0,15720.0,15735.0,798,-208,15735,2,15740,33
2016-06-15 08:16:00,08:16:02,08:16:55,7182,7595,15735.0,16,15740.0,39,15740.0,15750.0,15725.0,15725.0,447,-23,15720,23,15725,18
2016-06-15 08:17:00,08:17:02,08:17:59,7612,7785,15720.0,35,15725.0,24,15725.0,15735.0,15725.0,15735.0,150,102,15735,5,15740,33
2016-06-15 08:18:00,08:18:00,08:18:58,7789,7926,15735.0,2,15740.0,33,15735.0,15740.0,15730.0,15740.0,98,23,15735,17,15740,28
2016-06-15 08:19:00,08:19:07,08:19:56,7947,8029,15735.0,38,15740.0,11,15740.0,15740.0,15735.0,15735.0,39,15,15735,8,15740,39
2016-06-15 08:20:00,08:20:01,08:20:59,8036,8215,15735.0,8,15740.0,39,15735.0,15735.0,15720.0,15720.0,131,-91,15720,30,15725,27
2016-06-15 08:21:00,08:21:42,08:21:59,8278,8462,15720.0,46,15725.0,24,15720.0,15720.0,15710.0,15715.0,243,-124,15710,56,15715,1
2016-06-15 08:22:00,08:22:02,08:22:57,8467,8784,15710.0,56,15715.0,2,15715.0,15715.0,15700.0,15715.0,337,-117,15710,41,15715,4
2016-06-15 08:23:00,08:23:16,08:23:46,8815,8924,15710.0,35,15715.0,30,15710.0,15710.0,15710.0,15710.0,110,-50,15710,25,15715,37
2016-06-15 08:24:00,08:24:00,08:24:49,8952,9038,15710.0,24,15715.0,37,15710.0,15720.0,15710.0,15720.0,48,8,15715,35,15720,12
2016-06-15 08:25:00,08:25:08,08:25:32,9054,9153,15715.0,48,15720.0,14,15720.0,15720.0,15715.0,15715.0,102,36,15715,7,15720,136
2016-06-15 08:26:00,08:26:10,08:26:59,9188,9413,15715.0,33,15720.0,138,15720.0,15740.0,15715.0,15735.0,220,176,15735,15,15740,54
2016-06-15 08:27:00,08:27:12,08:27:39,9433,9621,15735.0,13,15740.0,55,15735.0,15740.0,15725.0,15730.0,237,-66,15725,38,15730,5
2016-06-15 08:28:00,08:28:04,08:28:58,9661,9886,15725.0,12,15730.0,36,15725.0,15750.0,15725.0,15750.0,226,130,15745,27,15750,12
2016-06-15 08:29:00,08:29:11,08:29:48,9906,10012,15745.0,21,15750.0,23,15745.0,15745.0,15735.0,15735.0,79,-59,15730,45,15735,7
2016-06-15 08:30:00,08:30:00,08:30:50,10032,10203,15730.0,30,15735.0,26,15730.0,15730.0,15715.0,15725.0,146,-78,15720,24,15725,38
2016-06-15 08:31:00,08:31:00,08:31:58,10215,10401,15720.0,20,15725.0,39,15720.0,15735.0,15720.0,15735.0,118,58,15730,39,15735,4
2016-06-15 08:32:00,08:32:06,08:32:56,10411,10644,15730.0,38,15735.0,4,15735.0,15750.0,15735.0,15735.0,202,2,15735,11,15740,33
2016-06-15 08:33:00,08:33:02,08:33:54,10658,10767,15735.0,20,15740.0,26,15740.0,15740.0,15735.0,15735.0,69,51,15735,9,15740,28
2016-06-15 08:34:00,08:34:37,08:34:51,10799,10831,15735.0,9,15740.0,39,15735.0,15735.0,15735.0,15735.0,19,-5,15730,34,15740,42
2016-06-15 08:35:00,08:35:12,08:35:49,10848,11093,15730.0,35,15735.0,10,15735.0,15740.0,15730.0,15730.0,275,-142,15730,21,15735,37
2016-06-15 08:36:00,08:36:08,08:36:49,11133,11225,15730.0,33,15735.0,29,15730.0,15730.0,15730.0,15730.0,75,23,15725,36,15730,10
2016-06-15 08:37:00,08:37:28,08:37:58,11245,11326,15725.0,48,15730.0,11,15730.0,15730.0,15725.0,15725.0,71,-49,15720,30,15725,10
2016-06-15 08:38:00,08:38:05,08:38:50,11343,11519,15720.0,26,15725.0,15,15720.0,15720.0,15715.0,15720.0,156,-32,15720,23,15725,14
2016-06-15 08:39:00,08:39:00,08:39:11,11533,11571,15720.0,9,15725.0,28,15720.0,15720.0,15715.0,15715.0,40,-40,15710,33,15715,5
2016-06-15 08:40:00,08:40:21,08:40:55,11666,11789,15710.0,21,15715.0,38,15710.0,15725.0,15710.0,15725.0,110,-47,15725,9,15730,36
2016-06-15 08:41:00,08:41:06,08:41:56,11810,11940,15725.0,28,15730.0,27,15725.0,15735.0,15725.0,15730.0,97,-31,15730,16,15735,31
2016-06-15 08:42:00,08:42:05,08:42:46,11947,12012,15730.0,14,15735.0,33,15730.0,15730.0,15730.0,15730.0,38,-28,15725,15,15730,27
2016-06-15 08:43:00,08:43:09,08:43:48,12026,12077,15725.0,7,15730.0,36,15725.0,15730.0,15725.0,15725.0,43,-17,15720,37,15730,48
2016-06-15 08:44:00,08:44:13,08:44:47,12103,12164,15725.0,33,15730.0,15,15730.0,15735.0,15730.0,15735.0,60,45,15730,18,15735,29
2016-06-15 08:45:00,08:45:00,08:45:59,12168,12471,15730.0,18,15735.0,28,15730.0,15765.0,15725.0,15765.0,287,182,15765,16,15770,30
2016-06-15 08:46:00,08:46:01,08:46:56,12478,12760,15765.0,4,15770.0,39,15765.0,15775.0,15765.0,15770.0,255,168,15765,35,15770,18
2016-06-15 08:47:00,08:47:03,08:47:07,12772,12793,15765.0,32,15770.0,25,15765.0,15765.0,15765.0,15765.0,28,14,15760,42,15765,7
2016-06-15 08:48:00,08:48:01,08:48:51,12862,13131,15760.0,36,15765.0,24,15760.0,15775.0,15760.0,15775.0,273,-57,15770,37,15775,6
2016-06-15 08:49:00,08:49:01,08:49:52,13147,13290,15770.0,42,15775.0,6,15775.0,15775.0,15770.0,15775.0,89,-19,15770,36,15775,3
2016-06-15 08:50:00,08:50:08,08:50:53,13322,13425,15770.0,38,15775.0,17,15775.0,15775.0,15770.0,15775.0,145,-3,15775,4,15780,70
2016-06-15 08:51:00,08:51:05,08:51:59,13439,13747,15775.0,30,15780.0,67,15775.0,15800.0,15775.0,15785.0,321,140,15780,61,15790,41
2016-06-15 08:52:00,08:52:00,08:52:52,13748,13905,15785.0,12,15790.0,40,15785.0,15785.0,15785.0,15785.0,132,57,15780,64,15785,3
2016-06-15 08:53:00,08:53:15,08:53:42,13933,14053,15780.0,58,15785.0,37,15780.0,15780.0,15775.0,15775.0,141,-101,15775,11,15780,61
2016-06-15 08:54:00,08:54:12,08:54:59,14089,14265,15775.0,9,15780.0,65,15775.0,15775.0,15765.0,15765.0,117,-56,15765,13,15770,34
2016-06-15 08:55:00,08:55:00,08:55:56,14266,14510,15765.0,27,15770.0,25,15765.0,15780.0,15765.0,15765.0,191,-78,15760,34,15765,5
2016-06-15 08:56:00,08:56:00,08:56:52,14520,14790,15760.0,23,15765.0,21,15765.0,15765.0,15745.0,15760.0,254,165,15755,30,15760,22
2016-06-15 08:57:00,08:57:04,08:57:54,14814,15005,15755.0,34,15760.0,17,15760.0,15760.0,15750.0,15755.0,179,-89,15755,3,15760,39
2016-06-15 08:58:00,08:58:00,08:58:59,15016,15351,15755.0,14,15760.0,36,15755.0,15775.0,15750.0,15775.0,362,211,15775,7,15780,36
2016-06-15 08:59:00,08:59:25,08:59:55,15379,15496,15775.0,16,15780.0,36,15775.0,15780.0,15770.0,15770.0,104,-60,15770,17,15775,30
2016-06-15 09:00:00,09:00:00,09:00:48,15506,15667,15770.0,7,15775.0,33,15770.0,15775.0,15770.0,15775.0,115,1,15770,36,15775,2
2016-06-15 09:01:00,09:01:00,09:01:58,15681,15880,15770.0,32,15775.0,11,15775.0,15790.0,15775.0,15790.0,185,8,15785,33,15795,42
2016-06-15 09:02:00,09:02:04,09:02:59,15896,16298,15790.0,25,15795.0,27,15795.0,15830.0,15795.0,15825.0,454,330,15820,33,15830,59
2016-06-15 09:03:00,09:03:06,09:03:51,16321,16583,15825.0,18,15830.0,42,15830.0,15830.0,15820.0,15825.0,263,38,15820,29,15825,16
2016-06-15 09:04:00,09:04:02,09:04:55,16606,16780,15820.0,20,15825.0,28,15820.0,15830.0,15815.0,15830.0,221,-41,15825,105,15830,17
2016-06-15 09:05:00,09:05:02,09:05:40,16791,17008,15825.0,158,15830.0,18,15830.0,15845.0,15830.0,15840.0,286,72,15840,5,15845,35
2016-06-15 09:06:00,09:06:01,09:06:57,17045,17281,15840.0,33,15845.0,21,15840.0,15855.0,15840.0,15855.0,250,70,15850,79,15855,21
2016-06-15 09:07:00,09:07:00,09:07:55,17290,17753,15850.0,78,15855.0,24,15855.0,15865.0,15845.0,15845.0,880,76,15845,42,15850,6
2016-06-15 09:08:00,09:08:01,09:08:58,17764,17975,15845.0,28,15850.0,25,15845.0,15850.0,15840.0,15850.0,174,58,15850,47,15855,35
2016-06-15 09:09:00,09:09:01,09:09:55,17984,18273,15850.0,58,15855.0,25,15850.0,15865.0,15850.0,15855.0,336,107,15855,40,15860,46
2016-06-15 09:10:00,09:10:01,09:10:59,18288,18583,15855.0,42,15860.0,58,15855.0,15860.0,15830.0,15830.0,275,-159,15830,11,15835,43
2016-06-15 09:11:00,09:11:00,09:11:51,18587,18710,15830.0,11,15835.0,40,15830.0,15835.0,15830.0,15835.0,78,-56,15830,21,15835,33
2016-06-15 09:12:00,09:12:01,09:12:51,18722,18929,15830.0,21,15835.0,43,15830.0,15830.0,15810.0,15815.0,246,-103,15815,4,15820,41
2016-06-15 09:13:00,09:13:00,09:13:59,18946,19093,15815.0,3,15820.0,46,15820.0,15820.0,15810.0,15810.0,139,39,15805,30,15810,1
2016-06-15 09:14:00,09:14:01,09:14:54,19098,19318,15805.0,30,15810.0,23,15805.0,15805.0,15800.0,15805.0,219,-61,15805,19,15810,26
2016-06-15 09:15:00,09:15:00,09:15:52,19328,19543,15805.0,15,15810.0,26,15805.0,15815.0,15800.0,15805.0,240,176,15805,30,15810,8
2016-06-15 09:16:00,09:16:02,09:16:52,19553,19656,15805.0,28,15810.0,27,15805.0,15810.0,15800.0,15800.0,54,-48,15800,30,15805,26
2016-06-15 09:17:00,09:17:02,09:17:52,19677,19851,15800.0,41,15805.0,14,15800.0,15815.0,15800.0,15800.0,145,29,15800,28,15805,24
2016-06-15 09:18:00,09:18:00,09:18:59,19866,20069,15800.0,40,15805.0,15,15805.0,15805.0,15785.0,15790.0,162,-84,15790,37,15795,9
2016-06-15 09:19:00,09:19:02,09:19:52,20080,20176,15790.0,40,15795.0,5,15790.0,15800.0,15790.0,15795.0,59,17,15795,31,15800,22
2016-06-15 09:20:00,09:20:00,09:20:52,20180,20429,15795.0,34,15800.0,23,15795.0,15810.0,15795.0,15795.0,207,11,15795,27,15800,15
2016-06-15 09:21:00,09:21:03,09:21:53,20448,20582,15795.0,20,15800.0,28,15795.0,15795.0,15790.0,15790.0,51,-7,15790,26,15795,38
2016-06-15 09:22:00,09:22:03,09:22:53,20600,20774,15790.0,30,15795.0,26,15790.0,15790.0,15775.0,15775.0,115,-68,15775,24,15780,19
2016-06-15 09:23:00,09:23:00,09:23:56,20787,20995,15775.0,18,15780.0,22,15775.0,15780.0,15770.0,15780.0,134,-28,15780,17,15785,38
2016-06-15 09:24:00,09:24:03,09:24:59,21010,21167,15780.0,20,15785.0,33,15780.0,15795.0,15780.0,15790.0,111,-5,15790,20,15795,24
2016-06-15 09:25:00,09:25:03,09:25:53,21178,21413,15790.0,34,15795.0,11,15790.0,15820.0,15790.0,15805.0,192,102,15805,23,15810,17
2016-06-15 09:26:00,09:26:07,09:26:55,21439,21690,15805.0,17,15810.0,23,15805.0,15805.0,15785.0,15795.0,224,-28,15790,26,15795,7
2016-06-15 09:27:00,09:27:11,09:27:59,21727,21903,15790.0,32,15795.0,8,15795.0,15805.0,15790.0,15805.0,142,-22,15805,4,15810,29
2016-06-15 09:28:00,09:28:01,09:28:49,21911,22090,15805.0,9,15810.0,25,15805.0,15805.0,15790.0,15795.0,112,-73,15795,4,15800,35
2016-06-15 09:29:00,09:29:04,09:29:54,22124,22328,15790.0,12,15795.0,35,15790.0,15790.0,15785.0,15785.0,113,-27,15780,35,15785,1
2016-06-15 09:30:00,09:30:00,09:30:56,22352,22639,15780.0,29,15785.0,8,15785.0,15795.0,15780.0,15795.0,198,-20,15795,3,15800,29
2016-06-15 09:31:00,09:31:00,09:31:58,22653,22968,15795.0,34,15800.0,10,15800.0,15810.0,15800.0,15800.0,261,5,15795,31,15800,21
2016-06-15 09:32:00,09:32:04,09:32:47,22978,23165,15795.0,14,15800.0,30,15795.0,15800.0,15790.0,15800.0,140,22,15800,18,15805,30
2016-06-15 09:33:00,09:33:02,09:33:54,23198,23410,15800.0,20,15805.0,25,15805.0,15805.0,15790.0,15800.0,145,-3,15795,37,15805,39
2016-06-15 09:34:00,09:34:02,09:34:53,23432,23776,15795.0,34,15800.0,15,15800.0,15830.0,15795.0,15825.0,376,36,15825,24,15830,24
2016-06-15 09:35:00,09:35:14,09:35:57,23820,24049,15825.0,37,15830.0,12,15830.0,15830.0,15820.0,15820.0,284,-170,15815,73,15825,32
2016-06-15 09:36:00,09:36:09,09:36:58,24081,24238,15820.0,16,15825.0,29,15820.0,15825.0,15820.0,15820.0,107,25,15815,32,15820,17
2016-06-15 09:37:00,09:37:01,09:37:56,24248,24554,15815.0,32,15820.0,15,15820.0,15845.0,15820.0,15840.0,442,216,15835,29,15840,16
2016-06-15 09:38:00,09:38:00,09:38:57,24561,24829,15835.0,31,15840.0,9,15840.0,15850.0,15835.0,15845.0,437,-161,15840,85,15850,34
2016-06-15 09:39:00,09:39:04,09:39:58,24841,25240,15840.0,83,15845.0,25,15845.0,15855.0,15840.0,15845.0,714,430,15840,34,15845,18
2016-06-15 09:40:00,09:40:11,09:40:52,25257,25447,15840.0,26,15845.0,29,15840.0,15840.0,15830.0,15835.0,151,-49,15835,24,15840,18
2016-06-15 09:41:00,09:41:09,09:41:47,25490,25573,15835.0,15,15840.0,31,15835.0,15835.0,15835.0,15835.0,27,9,15830,27,15835,5
2016-06-15 09:42:00,09:42:07,09:42:47,25610,25699,15830.0,21,15835.0,15,15830.0,15835.0,15825.0,15825.0,94,-76,15825,11,15830,30
2016-06-15 09:43:00,09:43:02,09:43:51,25723,25861,15825.0,14,15830.0,32,15825.0,15830.0,15825.0,15830.0,72,0,15825,37,15830,3
2016-06-15 09:44:00,09:44:13,09:44:52,25897,26062,15825.0,21,15830.0,30,15825.0,15825.0,15815.0,15815.0,142,-130,15815,2,15820,29
2016-06-15 09:45:00,09:45:00,09:45:59,26078,26225,15815.0,14,15820.0,27,15815.0,15825.0,15815.0,15825.0,45,-3,15820,23,15825,18
2016-06-15 09:46:00,09:46:05,09:46:53,26236,26355,15820.0,29,15825.0,8,15825.0,15825.0,15815.0,15815.0,52,-38,15810,24,15815,13
2016-06-15 09:47:00,09:47:01,09:47:58,26372,26537,15810.0,27,15815.0,17,15815.0,15825.0,15815.0,15825.0,71,10,15825,8,15830,34
2016-06-15 09:48:00,09:48:09,09:48:53,26560,26713,15825.0,24,15830.0,18,15825.0,15840.0,15825.0,15840.0,83,3,15840,5,15845,38
2016-06-15 09:49:00,09:49:09,09:49:57,26743,26915,15840.0,26,15845.0,30,15845.0,15850.0,15845.0,15845.0,140,99,15845,6,15850,26
2016-06-15 09:50:00,09:50:02,09:50:42,26929,27077,15845.0,26,15850.0,11,15850.0,15850.0,15840.0,15845.0,82,14,15845,14,15850,39
2016-06-15 09:51:00,09:51:03,09:51:55,27110,27227,15845.0,17,15850.0,37,15845.0,15850.0,15840.0,15845.0,69,-47,15840,24,15845,14
2016-06-15 09:52:00,09:52:02,09:52:56,27243,27399,15840.0,32,15845.0,7,15845.0,15855.0,15845.0,15855.0,69,23,15855,29,15860,26
2016-06-15 09:53:00,09:53:02,09:53:58,27412,27709,15855.0,27,15860.0,30,15855.0,15875.0,15855.0,15875.0,287,179,15870,38,15880,34
2016-06-15 09:54:00,09:54:01,09:54:58,27720,28146,15875.0,34,15880.0,16,15880.0,15880.0,15870.0,15875.0,694,-149,15870,40,15880,30
2016-06-15 09:55:00,09:55:02,09:55:59,28157,28344,15870.0,28,15875.0,16,15870.0,15875.0,15865.0,15865.0,121,-37,15860,34,15865,16
2016-06-15 09:56:00,09:56:00,09:56:59,28345,28520,15865.0,2,15870.0,29,15865.0,15865.0,15855.0,15855.0,90,-58,15855,10,15860,28
2016-06-15 09:57:00,09:57:01,09:57:54,28528,28657,15855.0,3,15860.0,29,15855.0,15855.0,15850.0,15855.0,57,13,15855,24,15860,24
2016-06-15 09:58:00,09:58:11,09:58:42,28668,28737,15855.0,30,15860.0,23,15860.0,15865.0,15860.0,15860.0,35,17,15855,36,15860,9
2016-06-15 09:59:00,09:59:15,09:59:50,28785,28878,15855.0,28,15860.0,14,15860.0,15865.0,15860.0,15865.0,63,1,15865,12,15870,30
2016-06-15 10:00:00,10:00:02,10:00:59,28901,29174,15865.0,22,15870.0,16,15865.0,15865.0,15845.0,15845.0,205,-57,15845,8,15850,26
2016-06-15 10:01:00,10:01:00,10:01:59,29180,29437,15845.0,3,15850.0,31,15845.0,15845.0,15840.0,15845.0,202,-29,15840,31,15845,4
2016-06-15 10:02:00,10:02:01,10:02:59,29444,29563,15840.0,31,15845.0,2,15845.0,15845.0,15835.0,15840.0,30,0,15840,11,15845,25
2016-06-15 10:03:00,10:03:01,10:03:59,29569,29808,15840.0,16,15845.0,23,15845.0,15865.0,15845.0,15865.0,187,49,15860,26,15870,29
2016-06-15 10:04:00,10:04:00,10:04:56,29811,30141,15860.0,26,15870.0,29,15865.0,15875.0,15860.0,15870.0,275,30,15870,12,15875,22
2016-06-15 10:05:00,10:05:02,10:05:59,30154,30385,15870.0,26,15875.0,5,15875.0,15880.0,15865.0,15880.0,240,19,15875,40,15880,1
2016-06-15 10:06:00,10:06:00,10:06:59,30390,30650,15875.0,41,15885.0,30,15875.0,15900.0,15875.0,15900.0,212,161,15895,52,15900,8
2016-06-15 10:07:00,10:07:00,10:07:53,30651,30844,15895.0,64,15900.0,1,15900.0,15900.0,15890.0,15890.0,160,32,15890,44,15895,7
2016-06-15 10:08:00,10:08:04,10:08:57,30873,31067,15890.0,29,15895.0,19,15890.0,15900.0,15890.0,15895.0,140,46,15890,41,15900,33
2016-06-15 10:09:00,10:09:04,10:09:57,31085,31357,15895.0,31,15900.0,6,15900.0,15905.0,15890.0,15900.0,198,-93,15900,4,15905,37
2016-06-15 10:10:00,10:10:09,10:10:56,31386,31573,15900.0,10,15905.0,40,15900.0,15905.0,15895.0,15895.0,117,43,15895,43,15900,17
2016-06-15 10:11:00,10:11:00,10:11:57,31577,31902,15895.0,41,15900.0,17,15900.0,15915.0,15900.0,15915.0,302,23,15910,28,15915,5
2016-06-15 10:12:00,10:12:00,10:12:59,31911,32296,15910.0,15,15915.0,20,15915.0,15925.0,15915.0,15920.0,430,316,15915,53,15920,1
2016-06-15 10:13:00,10:13:00,10:13:59,32299,32579,15915.0,53,15920.0,1,15920.0,15940.0,15920.0,15940.0,262,129,15935,27,15940,19
2016-06-15 10:14:00,10:14:03,10:14:52,32587,32842,15935.0,27,15940.0,21,15940.0,15945.0,15935.0,15935.0,341,114,15935,78,15940,39
2016-06-15 10:15:00,10:15:00,10:15:56,32851,33047,15935.0,77,15940.0,37,15940.0,15940.0,15930.0,15940.0,209,-19,15940,15,15945,32
2016-06-15 10:16:00,10:16:06,10:16:55,33071,33358,15940.0,19,15945.0,39,15945.0,15950.0,15935.0,15935.0,304,130,15935,50,15940,29
2016-06-15 10:17:00,10:17:02,10:17:59,33371,33535,15935.0,20,15940.0,24,15940.0,15940.0,15930.0,15935.0,165,3,15930,65,15935,3
2016-06-15 10:18:00,10:18:05,10:18:57,33553,33783,15930.0,62,15935.0,12,15930.0,15935.0,15920.0,15920.0,247,-52,15920,69,15925,22
2016-06-15 10:19:00,10:19:00,10:19:51,33788,34018,15920.0,71,15925.0,23,15925.0,15925.0,15920.0,15925.0,228,-150,15920,38,15925,51
2016-06-15 10:20:00,10:20:03,10:20:59,34041,34207,15920.0,52,15925.0,27,15925.0,15925.0,15920.0,15925.0,121,-29,15920,63,15925,16
2016-06-15 10:21:00,10:21:01,10:21:55,34214,34385,15920.0,68,15925.0,12,15925.0,15930.0,15925.0,15925.0,150,66,15925,21,15930,59
2016-06-15 10:22:00,10:22:10,10:22:29,34412,34569,15925.0,37,15930.0,23,15925.0,15940.0,15925.0,15940.0,231,102,15935,36,15940,14
2016-06-15 10:23:00,10:23:08,10:23:59,34626,34766,15935.0,25,15940.0,25,15940.0,15950.0,15940.0,15945.0,77,29,15945,3,15945,16
2016-06-15 10:24:00,10:24:01,10:24:56,34768,34947,15945.0,3,15950.0,40,15945.0,15950.0,15945.0,15950.0,144,18,15945,29,15950,33
2016-06-15 10:25:00,10:25:00,10:25:59,34957,35270,15945.0,28,15950.0,33,15950.0,15955.0,15915.0,15915.0,318,-201,15910,84,15920,36
2016-06-15 10:26:00,10:26:00,10:26:52,35273,35544,15910.0,84,15920.0,36,15915.0,15920.0,15910.0,15915.0,365,-174,15910,21,15915,18
2016-06-15 10:27:00,10:27:09,10:27:53,35581,35756,15910.0,29,15915.0,16,15915.0,15920.0,15915.0,15915.0,133,7,15915,11,15920,36
2016-06-15 10:28:00,10:28:00,10:28:51,35767,35893,15915.0,13,15920.0,36,15920.0,15930.0,15920.0,15925.0,112,86,15925,53,15930,40
2016-06-15 10:29:00,10:29:02,10:29:58,35903,35994,15925.0,55,15930.0,38,15925.0,15930.0,15925.0,15930.0,56,-52,15925,17,15930,44
2016-06-15 10:30:00,10:30:00,10:30:59,36000,36213,15925.0,18,15930.0,44,15925.0,15930.0,15915.0,15915.0,124,-27,15910,29,15915,7
2016-06-15 10:31:00,10:31:00,10:31:59,36217,36325,15910.0,29,15915.0,6,15915.0,15915.0,15910.0,15915.0,53,-1,15910,41,15920,34
2016-06-15 10:32:00,10:32:01,10:32:48,36328,36436,15910.0,40,15915.0,3,15915.0,15920.0,15915.0,15915.0,53,23,15915,25,15920,28
2016-06-15 10:33:00,10:33:12,10:33:48,36447,36553,15915.0,46,15920.0,13,15920.0,15925.0,15920.0,15925.0,62,50,15920,30,15930,40
2016-06-15 10:34:00,10:34:09,10:34:58,36571,36656,15920.0,34,15925.0,13,15925.0,15925.0,15925.0,15925.0,32,14,15925,12,15930,39
2016-06-15 10:35:00,10:35:05,10:35:56,36673,36758,15925.0,10,15930.0,40,15925.0,15930.0,15925.0,15925.0,27,-3,15920,37,15925,7
2016-06-15 10:36:00,10:36:00,10:36:00,0,0,0.0,0,0.0,0,15925.0,15925.0,15925.0,15925.0,0,0,0,0,0,0
2016-06-15 10:37:00,10:37:00,10:37:00,0,0,0.0,0,0.0,0,15925.0,15925.0,15925.0,15925.0,0,0,0,0,0,0
2016-06-15 10:38:00,10:38:01,10:38:36,36842,36942,15920.0,22,15925.0,31,15920.0,15920.0,15915.0,15915.0,72,2,15910,30,15915,2
2016-06-15 10:39:00,10:39:00,10:39:00,0,0,0.0,0,0.0,0,15915.0,15915.0,15915.0,15915.0,0,0,0,0,0,0
2016-06-15 10:40:00,10:40:04,10:40:40,36998,37059,15910.0,31,15915.0,7,15915.0,15915.0,15915.0,15915.0,8,8,15910,26,15915,7
2016-06-15 10:41:00,10:41:02,10:41:50,37086,37157,15910.0,29,15915.0,4,15915.0,15915.0,15910.0,15915.0,8,6,15910,29,15915,2
2016-06-15 10:42:00,10:42:01,10:42:36,37167,37237,15910.0,30,15915.0,11,15910.0,15920.0,15910.0,15920.0,14,8,15915,4,15920,33
2016-06-15 10:43:00,10:43:10,10:43:59,37272,37364,15915.0,21,15920.0,28,15920.0,15920.0,15915.0,15920.0,54,26,15915,42,15925,34
2016-06-15 10:44:00,10:44:16,10:44:46,37390,37429,15915.0,37,15920.0,14,15920.0,15920.0,15915.0,15915.0,5,1,15915,35,15920,20
2016-06-15 10:45:00,10:45:40,10:45:54,37455,37503,15915.0,44,15920.0,5,15920.0,15920.0,15920.0,15920.0,25,-3,15915,43,15925,32
2016-06-15 10:46:00,10:46:15,10:46:24,37524,37541,15920.0,11,15925.0,29,15920.0,15920.0,15920.0,15920.0,7,-5,15920,4,15925,31
2016-06-15 10:47:00,10:47:27,10:47:28,37596,37623,15920.0,29,15925.0,37,15920.0,15920.0,15920.0,15920.0,34,-34,15915,32,15920,10
2016-06-15 10:48:00,10:48:01,10:48:01,37659,37674,15915.0,37,15920.0,12,15920.0,15920.0,15920.0,15920.0,17,17,15920,9,15925,36
2016-06-15 10:49:00,10:49:41,10:49:41,37753,37753,15920.0,31,15925.0,20,15920.0,15920.0,15920.0,15920.0,1,-1,15920,32,15925,10
2016-06-15 10:50:00,10:50:53,10:50:59,37830,37878,15920.0,26,15925.0,21,15925.0,15930.0,15925.0,15925.0,40,31,15920,32,15930,59
2016-06-15 10:51:00,10:51:07,10:51:54,37885,37937,15920.0,28,15925.0,16,15925.0,15930.0,15920.0,15930.0,70,66,15925,43,15930,8
2016-06-15 10:52:00,10:52:10,10:52:56,37945,37977,15925.0,43,15930.0,11,15930.0,15930.0,15930.0,15930.0,10,10,15925,42,15930,12
2016-06-15 10:53:00,10:53:03,10:53:53,37985,38055,15925.0,41,15930.0,15,15930.0,15930.0,15925.0,15925.0,46,-40,15920,28,15925,1
2016-06-15 10:54:00,10:54:00,10:54:58,38058,38162,15920.0,28,15925.0,1,15925.0,15930.0,15920.0,15920.0,89,7,15920,2,15925,19
2016-06-15 10:55:00,10:55:08,10:55:36,38181,38211,15920.0,5,15925.0,32,15920.0,15920.0,15920.0,15920.0,7,3,15915,37,15925,32
2016-06-15 10:56:00,10:56:35,10:56:50,38266,38334,15915.0,23,15920.0,29,15915.0,15915.0,15910.0,15910.0,85,-42,15905,34,15915,40
2016-06-15 10:57:00,10:57:09,10:57:54,38367,38642,15905.0,34,15910.0,14,15910.0,15930.0,15905.0,15930.0,303,104,15925,29,15930,7
2016-06-15 10:58:00,10:58:00,10:58:58,38653,38813,15925.0,21,15930.0,15,15930.0,15935.0,15925.0,15935.0,155,-31,15930,27,15935,4
2016-06-15 10:59:00,10:59:00,10:59:49,38820,38892,15930.0,26,15935.0,6,15935.0,15935.0,15935.0,15935.0,25,-3,15930,31,15940,28
2016-06-15 11:00:00,11:00:08,11:00:26,38914,38973,15935.0,10,15940.0,24,15935.0,15940.0,15935.0,15935.0,38,12,15935,3,15940,29
2016-06-15 11:01:00,11:01:00,11:01:46,38985,39119,15935.0,3,15940.0,30,15935.0,15935.0,15930.0,15935.0,137,-96,15935,9,15940,31
2016-06-15 11:02:00,11:02:27,11:02:49,39176,39258,15935.0,16,15940.0,23,15935.0,15950.0,15935.0,15945.0,79,71,15945,24,15950,32
2016-06-15 11:03:00,11:03:09,11:03:17,39272,39344,15945.0,34,15950.0,25,15950.0,15955.0,15950.0,15955.0,79,41,15950,39,15955,19
2016-06-15 11:04:00,11:04:02,11:04:59,39380,39407,15950.0,25,15955.0,29,15950.0,15955.0,15950.0,15955.0,13,5,15950,48,15955,26
2016-06-15 11:05:00,11:05:01,11:05:59,39411,39545,15950.0,48,15955.0,24,15955.0,15965.0,15955.0,15965.0,115,49,15960,55,15965,55
2016-06-15 11:06:00,11:06:00,11:06:20,39548,39626,15960.0,55,15965.0,55,15965.0,15970.0,15965.0,15965.0,110,60,15960,43,15965,5
2016-06-15 11:07:00,11:07:04,11:07:27,39658,39681,15960.0,27,15965.0,28,15960.0,15960.0,15960.0,15960.0,3,-3,15960,29,15965,17
2016-06-15 11:08:00,11:08:02,11:08:56,39707,39781,15960.0,30,15965.0,28,15965.0,15965.0,15960.0,15960.0,27,1,15955,36,15960,17
2016-06-15 11:09:00,11:09:18,11:09:55,39807,39857,15955.0,32,15960.0,30,15955.0,15955.0,15950.0,15955.0,42,-26,15950,38,15955,16
2016-06-15 11:10:00,11:10:19,11:10:48,39878,39909,15950.0,38,15955.0,18,15955.0,15955.0,15950.0,15955.0,11,9,15950,46,15955,23
2016-06-15 11:11:00,11:11:00,11:11:50,39916,39940,15950.0,42,15955.0,28,15955.0,15955.0,15950.0,15950.0,3,-1,15950,44,15955,18
2016-06-15 11:12:00,11:12:11,11:12:44,39957,40066,15950.0,48,15955.0,15,15955.0,15960.0,15955.0,15955.0,109,59,15950,53,15960,34
2016-06-15 11:13:00,11:13:03,11:13:39,40088,40129,15955.0,23,15960.0,28,15960.0,15960.0,15955.0,15955.0,22,-6,15955,6,15960,43
2016-06-15 11:14:00,11:14:08,11:14:43,40172,40242,15955.0,31,15960.0,26,15960.0,15965.0,15960.0,15965.0,59,55,15960,29,15965,23
2016-06-15 11:15:00,11:15:13,11:15:36,40285,40335,15960.0,22,15965.0,26,15960.0,15960.0,15960.0,15960.0,77,-77,15955,43,15965,37
2016-06-15 11:16:00,11:16:24,11:16:57,40373,40480,15955.0,35,15960.0,25,15955.0,15960.0,15950.0,15950.0,143,-75,15950,19,15955,21
2016-06-15 11:17:00,11:17:33,11:17:46,40504,40533,15950.0,28,15955.0,26,15950.0,15950.0,15950.0,15950.0,49,-49,15945,36,15955,26
2016-06-15 11:18:00,11:18:02,11:18:42,40546,40612,15950.0,29,15955.0,24,15950.0,15955.0,15950.0,15955.0,80,-36,15950,40,15955,16
2016-06-15 11:19:00,11:19:04,11:19:34,40639,40697,15950.0,52,15955.0,2,15955.0,15955.0,15955.0,15955.0,17,4,15950,57,15960,58
2016-06-15 11:20:00,11:20:27,11:20:56,40729,40772,15955.0,6,15960.0,60,15960.0,15960.0,15955.0,15955.0,17,-9,15950,59,15955,9
2016-06-15 11:21:00,11:21:00,11:21:54,40782,40964,15950.0,61,15955.0,3,15955.0,15955.0,15940.0,15940.0,168,-26,15940,39,15945,5
2016-06-15 11:22:00,11:22:00,11:22:50,40973,41093,15940.0,41,15945.0,7,15945.0,15945.0,15930.0,15935.0,73,-37,15930,35,15940,18
2016-06-15 11:23:00,11:23:13,11:23:34,41107,41126,15935.0,8,15940.0,37,15935.0,15935.0,15935.0,15935.0,4,-4,15935,23,15940,24
2016-06-15 11:24:00,11:24:00,11:24:49,41152,41216,15935.0,28,15940.0,24,15935.0,15935.0,15930.0,15930.0,43,-43,15930,14,15935,50
2016-06-15 11:25:00,11:25:00,11:25:56,41236,41356,15930.0,27,15935.0,32,15930.0,15930.0,15925.0,15925.0,71,-45,15925,2,15930,24
2016-06-15 11:26:00,11:26:10,11:26:41,41373,41466,15925.0,3,15930.0,28,15925.0,15930.0,15925.0,15925.0,68,-20,15920,33,15925,31
2016-06-15 11:27:00,11:27:06,11:27:55,41488,41591,15920.0,33,15925.0,40,15925.0,15930.0,15920.0,15930.0,86,74,15925,35,15935,39
2016-06-15 11:28:00,11:28:00,11:28:58,41602,41708,15925.0,35,15930.0,6,15930.0,15940.0,15930.0,15935.0,72,-10,15930,37,15935,7
2016-06-15 11:29:00,11:29:17,11:29:58,41714,41770,15930.0,37,15935.0,12,15935.0,15935.0,15935.0,15935.0,45,45,15930,31,15935,13
2016-06-15 11:30:00,11:30:00,11:30:59,41774,41949,15930.0,31,15935.0,14,15935.0,15940.0,15935.0,15935.0,90,31,15930,41,15935,1
2016-06-15 11:31:00,11:31:01,11:31:48,41954,42069,15930.0,51,15935.0,1,15935.0,15945.0,15935.0,15940.0,88,8,15935,60,15945,34
2016-06-15 11:32:00,11:32:15,11:32:55,42091,42189,15935.0,39,15940.0,23,15935.0,15935.0,15935.0,15935.0,44,-18,15930,42,15935,4
2016-06-15 11:33:00,11:33:27,11:33:49,42211,42254,15930.0,43,15935.0,1,15935.0,15935.0,15935.0,15935.0,21,13,15935,6,15940,34
2016-06-15 11:34:00,11:34:09,11:34:57,42280,42413,15930.0,47,15935.0,14,15935.0,15935.0,15915.0,15920.0,117,-77,15920,16,15925,33
2016-06-15 11:35:00,11:35:00,11:35:45,42419,42542,15920.0,4,15925.0,36,15920.0,15920.0,15910.0,15915.0,86,-6,15910,35,15915,36
2016-06-15 11:36:00,11:36:01,11:36:51,42556,42681,15910.0,36,15915.0,25,15910.0,15920.0,15910.0,15915.0,86,14,15915,5,15920,33
2016-06-15 11:37:00,11:37:01,11:37:51,42690,42772,15915.0,16,15920.0,27,15915.0,15920.0,15915.0,15915.0,38,-36,15915,2,15920,34
2016-06-15 11:38:00,11:38:01,11:38:51,42779,42913,15915.0,4,15920.0,34,15915.0,15920.0,15900.0,15900.0,93,-67,15900,49,15905,3
2016-06-15 11:39:00,11:39:01,11:39:58,42929,43142,15900.0,31,15905.0,23,15900.0,15905.0,15890.0,15890.0,182,-144,15890,25,15895,29
2016-06-15 11:40:00,11:40:01,11:40:55,43146,43307,15890.0,26,15895.0,29,15890.0,15890.0,15885.0,15885.0,116,-46,15880,38,15885,22
2016-06-15 11:41:00,11:41:01,11:41:54,43316,43590,15880.0,43,15885.0,12,15880.0,15880.0,15865.0,15865.0,222,-78,15865,23,15870,26
2016-06-15 11:42:00,11:42:02,11:42:57,43599,43765,15865.0,20,15870.0,36,15865.0,15870.0,15865.0,15870.0,104,-8,15865,28,15875,41
2016-06-15 11:43:00,11:43:02,11:43:58,43777,43877,15870.0,20,15875.0,38,15870.0,15875.0,15870.0,15875.0,34,-20,15875,5,15880,43
2016-06-15 11:44:00,11:44:02,11:44:52,43882,44055,15875.0,5,15880.0,35,15875.0,15875.0,15860.0,15860.0,118,-89,15860,16,15865,23
2016-06-15 11:45:00,11:45:02,11:45:52,44079,44252,15860.0,22,15865.0,25,15860.0,15870.0,15860.0,15870.0,101,6,15870,7,15875,28
2016-06-15 11:46:00,11:46:02,11:46:52,44269,44358,15870.0,23,15875.0,22,15870.0,15875.0,15870.0,15870.0,41,-31,15870,32,15875,8
2016-06-15 11:47:00,11:47:02,11:47:53,44373,44533,15870.0,32,15875.0,14,15870.0,15885.0,15870.0,15880.0,186,60,15880,37,15885,2
2016-06-15 11:48:00,11:48:03,11:48:59,44543,44765,15880.0,36,15890.0,46,15880.0,15900.0,15880.0,15900.0,164,44,15900,30,15905,5
2016-06-15 11:49:00,11:49:00,11:49:57,44768,44947,15900.0,30,15905.0,5,15905.0,15905.0,15900.0,15905.0,118,38,15900,34,15905,13
2016-06-15 11:50:00,11:50:02,11:50:53,44954,45087,15900.0,40,15905.0,14,15900.0,15905.0,15890.0,15895.0,82,-58,15895,24,15900,28
2016-06-15 11:51:00,11:51:03,11:51:59,45098,45247,15895.0,39,15900.0,12,15900.0,15915.0,15900.0,15915.0,117,41,15910,37,15915,8
2016-06-15 11:52:00,11:52:00,11:52:53,45248,45366,15910.0,35,15915.0,6,15915.0,15915.0,15910.0,15910.0,56,-42,15910,31,15915,20
2016-06-15 11:53:00,11:53:03,11:53:53,45374,45518,15910.0,36,15915.0,11,15910.0,15915.0,15905.0,15905.0,130,-62,15905,34,15910,32
2016-06-15 11:54:00,11:54:03,11:54:54,45527,45703,15905.0,34,15910.0,32,15905.0,15910.0,15895.0,15900.0,181,-93,15895,25,15900,18
2016-06-15 11:55:00,11:55:03,11:55:54,45723,45843,15895.0,30,15900.0,13,15900.0,15900.0,15890.0,15895.0,62,-25,15895,25,15895,12
2016-06-15 11:56:00,11:56:00,11:56:59,45846,46036,15895.0,26,15900.0,34,15895.0,15910.0,15895.0,15910.0,144,86,15910,16,15915,29
2016-06-15 11:57:00,11:57:03,11:57:49,46045,46171,15910.0,32,15915.0,9,15915.0,15915.0,15910.0,15910.0,108,-92,15905,34,15915,37
2016-06-15 11:58:00,11:58:04,11:58:53,46183,46325,15910.0,24,15915.0,25,15915.0,15915.0,15895.0,15895.0,104,-38,15890,21,15895,15
2016-06-15 11:59:00,11:59:07,11:59:57,46353,46425,15890.0,28,15895.0,9,15895.0,15900.0,15890.0,15900.0,18,16,15895,28,15900,11
2016-06-15 12:00:00,12:00:00,12:00:44,46433,46581,15895.0,30,15900.0,4,15900.0,15900.0,15890.0,15895.0,93,13,15890,33,15895,4
2016-06-15 12:01:00,12:01:31,12:01:47,46634,46699,15890.0,45,15895.0,6,15895.0,15900.0,15895.0,15900.0,55,44,15900,9,15905,35
2016-06-15 12:02:00,12:02:00,12:02:54,46712,46786,15900.0,38,15905.0,11,15905.0,15910.0,15905.0,15905.0,32,-4,15905,11,15910,45
2016-06-15 12:03:00,12:03:00,12:03:46,46807,46880,15905.0,15,15910.0,22,15905.0,15905.0,15905.0,15905.0,43,-11,15905,10,15910,30
2016-06-15 12:04:00,12:04:05,12:04:51,46907,46978,15905.0,17,15910.0,25,15905.0,15905.0,15905.0,15905.0,22,-8,15905,19,15910,28
2016-06-15 12:05:00,12:05:15,12:05:40,47016,47109,15905.0,36,15910.0,9,15910.0,15930.0,15910.0,15930.0,87,81,15925,39,15930,22
2016-06-15 12:06:00,12:06:01,12:06:43,47151,47243,15925.0,39,15930.0,8,15930.0,15930.0,15925.0,15925.0,58,12,15925,21,15930,34
2016-06-15 12:07:00,12:07:15,12:07:57,47277,47399,15925.0,30,15930.0,29,15930.0,15930.0,15920.0,15920.0,123,-17,15915,32,15920,25
2016-06-15 12:08:00,12:08:01,12:08:55,47412,47674,15915.0,27,15920.0,34,15915.0,15915.0,15905.0,15905.0,257,-107,15900,44,15910,60
2016-06-15 12:09:00,12:09:40,12:09:52,47718,47755,15900.0,55,15905.0,11,15905.0,15910.0,15905.0,15905.0,32,30,15905,42,15910,24
2016-06-15 12:10:00,12:10:00,12:10:29,47762,47845,15905.0,46,15910.0,22,15910.0,15910.0,15905.0,15905.0,93,-21,15900,46,15905,9
2016-06-15 12:11:00,12:11:28,12:11:57,47896,48028,15900.0,35,15905.0,22,15900.0,15900.0,15890.0,15890.0,163,-151,15885,42,15895,35
2016-06-15 12:12:00,12:12:01,12:12:37,48038,48120,15885.0,43,15890.0,5,15890.0,15890.0,15890.0,15890.0,48,2,15885,47,15890,7
2016-06-15 12:13:00,12:13:07,12:13:58,48153,48243,15885.0,28,15890.0,35,15885.0,15885.0,15885.0,15885.0,41,-19,15885,19,15890,34
2016-06-15 12:14:00,12:14:17,12:14:23,48258,48261,15885.0,26,15890.0,14,15885.0,15885.0,15885.0,15885.0,2,-2,15885,30,15890,15
2016-06-15 12:15:00,12:15:11,12:15:57,48290,48382,15885.0,27,15890.0,31,15885.0,15890.0,15880.0,15890.0,62,-6,15885,66,15895,35
2016-06-15 12:16:00,12:16:18,12:16:27,48410,48427,15890.0,41,15895.0,10,15890.0,15895.0,15890.0,15895.0,18,16,15895,25,15900,22
2016-06-15 12:17:00,12:17:00,12:17:59,48468,48605,15895.0,38,15900.0,17,15895.0,15900.0,15890.0,15890.0,112,-24,15885,64,15895,39
2016-06-15 12:18:00,12:18:00,12:18:00,0,0,0.0,0,0.0,0,15890.0,15890.0,15890.0,15890.0,0,0,0,0,0,0
2016-06-15 12:19:00,12:19:24,12:19:45,48689,48749,15885.0,49,15890.0,20,15890.0,15895.0,15890.0,15895.0,47,35,15890,45,15895,1
2016-06-15 12:20:00,12:20:09,12:20:42,48776,48867,15895.0,39,15900.0,31,15895.0,15895.0,15885.0,15885.0,73,-54,15885,7,15890,33
2016-06-15 12:21:00,12:21:19,12:21:34,48893,48914,15885.0,49,15890.0,7,15890.0,15890.0,15885.0,15885.0,16,12,15885,32,15890,33
2016-06-15 12:22:00,12:22:01,12:22:59,48935,49032,15885.0,43,15890.0,10,15890.0,15890.0,15890.0,15890.0,18,8,15890,35,15895,20
2016-06-15 12:23:00,12:23:00,12:23:53,49036,49223,15890.0,40,15895.0,20,15895.0,15920.0,15895.0,15915.0,147,115,15910,42,15920,41
2016-06-15 12:24:00,12:24:03,12:24:57,49235,49336,15915.0,21,15920.0,37,15915.0,15915.0,15905.0,15905.0,68,6,15905,16,15910,29
2016-06-15 12:25:00,12:25:37,12:25:45,49367,49389,15905.0,37,15910.0,7,15910.0,15910.0,15910.0,15910.0,15,15,15905,28,15910,16
2016-06-15 12:26:00,12:26:31,12:26:59,49423,49486,15905.0,7,15910.0,38,15905.0,15905.0,15895.0,15895.0,60,-60,15890,21,15895,26
2016-06-15 12:27:00,12:27:04,12:27:44,49499,49597,15890.0,37,15895.0,5,15895.0,15895.0,15890.0,15895.0,74,-48,15890,32,15895,1
2016-06-15 12:28:00,12:28:05,12:28:45,49627,49697,15890.0,13,15895.0,29,15890.0,15890.0,15885.0,15885.0,47,-35,15880,35,15885,2
2016-06-15 12:29:00,12:29:00,12:29:59,49726,49915,15880.0,31,15885.0,6,15885.0,15890.0,15880.0,15880.0,141,-63,15875,21,15880,33
2016-06-15 12:30:00,12:30:08,12:30:54,49923,50056,15875.0,14,15880.0,36,15875.0,15875.0,15865.0,15865.0,81,-67,15865,13,15870,37
2016-06-15 12:31:00,12:31:04,12:31:34,50065,50184,15865.0,20,15870.0,37,15865.0,15865.0,15855.0,15865.0,130,-38,15865,47,15870,28
2016-06-15 12:32:00,12:32:58,12:32:58,50260,50284,15865.0,73,15870.0,25,15870.0,15870.0,15870.0,15870.0,43,29,15870,3,15875,39
2016-06-15 12:33:00,12:33:00,12:33:27,50291,50408,15870.0,30,15875.0,37,15875.0,15890.0,15875.0,15890.0,114,56,15885,19,15890,35
2016-06-15 12:34:00,12:34:11,12:34:59,50456,50576,15885.0,33,15890.0,30,15890.0,15890.0,15885.0,15885.0,111,52,15880,54,15885,4
2016-06-15 12:35:00,12:35:17,12:35:21,50588,50599,15880.0,56,15885.0,9,15885.0,15885.0,15885.0,15885.0,15,-5,15885,37,15890,24
2016-06-15 12:36:00,12:36:01,12:36:51,50622,50658,15885.0,45,15890.0,26,15885.0,15885.0,15885.0,15885.0,15,-15,15885,28,15890,33
2016-06-15 12:37:00,12:37:01,12:37:51,50663,50798,15885.0,27,15890.0,33,15885.0,15885.0,15875.0,15875.0,111,-93,15875,11,15880,35
2016-06-15 12:38:00,12:38:01,12:38:58,50816,50978,15875.0,33,15880.0,21,15875.0,15900.0,15875.0,15895.0,111,27,15895,2,15900,37
2016-06-15 12:39:00,12:39:01,12:39:51,50990,51127,15895.0,43,15900.0,16,15895.0,15900.0,15890.0,15890.0,128,-24,15890,45,15895,21
2016-06-15 12:40:00,12:40:01,12:40:51,51137,51170,15890.0,47,15895.0,18,15890.0,15890.0,15890.0,15890.0,16,-16,15890,40,15895,30
2016-06-15 12:41:00,12:41:01,12:41:59,51177,51276,15890.0,42,15895.0,31,15890.0,15895.0,15880.0,15880.0,121,-53,15875,15,15880,31
2016-06-15 12:42:00,12:42:01,12:42:59,51284,51460,15875.0,24,15880.0,31,15875.0,15875.0,15860.0,15865.0,137,-85,15865,22,15870,42
2016-06-15 12:43:00,12:43:00,12:43:52,51463,51610,15865.0,22,15870.0,42,15865.0,15875.0,15865.0,15865.0,108,-51,15865,83,15870,21
2016-06-15 12:44:00,12:44:02,12:44:56,51619,51757,15865.0,76,15870.0,14,15865.0,15875.0,15865.0,15870.0,115,75,15870,37,15875,9
2016-06-15 12:45:00,12:45:02,12:45:52,51762,51887,15870.0,35,15875.0,9,15870.0,15870.0,15860.0,15865.0,148,40,15865,34,15870,35
2016-06-15 12:46:00,12:46:02,12:46:59,51896,51991,15865.0,29,15870.0,37,15865.0,15865.0,15860.0,15865.0,60,-20,15865,12,15870,45
2016-06-15 12:47:00,12:47:02,12:47:52,51998,52132,15865.0,7,15870.0,46,15865.0,15870.0,15855.0,15855.0,92,-28,15855,24,15860,26
2016-06-15 12:48:00,12:48:02,12:48:52,52136,52348,15855.0,25,15860.0,26,15855.0,15860.0,15840.0,15855.0,230,-27,15855,17,15860,29
2016-06-15 12:49:00,12:49:02,12:49:56,52373,52498,15855.0,12,15860.0,38,15855.0,15855.0,15845.0,15845.0,101,-61,15845,43,15850,11
2016-06-15 12:50:00,12:50:02,12:50:59,52508,52656,15845.0,39,15850.0,14,15850.0,15865.0,15850.0,15865.0,148,100,15860,29,15865,9
2016-06-15 12:51:00,12:51:03,12:51:53,52663,52730,15860.0,25,15865.0,17,15860.0,15865.0,15860.0,15865.0,34,-6,15865,9,15870,30
2016-06-15 12:52:00,12:52:03,12:52:53,52746,52875,15865.0,10,15870.0,29,15865.0,15865.0,15860.0,15860.0,90,5,15860,33,15865,6
2016-06-15 12:53:00,12:53:03,12:53:53,52879,52929,15860.0,33,15865.0,13,15860.0,15865.0,15855.0,15855.0,21,-17,15855,17,15860,34
2016-06-15 12:54:00,12:54:03,12:54:53,52936,53015,15855.0,15,15860.0,38,15855.0,15860.0,15855.0,15855.0,53,12,15855,21,15860,23
2016-06-15 12:55:00,12:55:03,12:55:54,53026,53203,15855.0,34,15860.0,7,15855.0,15875.0,15855.0,15870.0,146,59,15870,4,15875,39
2016-06-15 12:56:00,12:56:09,12:56:52,53221,53264,15870.0,6,15875.0,39,15870.0,15870.0,15865.0,15865.0,21,-17,15860,48,15865,21
2016-06-15 12:57:00,12:57:01,12:57:31,53275,53404,15860.0,19,15865.0,42,15860.0,15870.0,15860.0,15865.0,132,21,15860,37,15865,5
2016-06-15 12:58:00,12:58:00,12:58:00,53428,53437,15860.0,36,15865.0,19,15865.0,15865.0,15865.0,15865.0,9,8,15860,38,15870,40
2016-06-15 12:59:00,12:59:11,12:59:55,53495,53645,15865.0,5,15870.0,43,15865.0,15865.0,15855.0,15860.0,133,-105,15855,42,15860,34
2016-06-15 13:00:00,13:00:00,13:00:57,53651,53824,15855.0,10,15860.0,34,15860.0,15870.0,15855.0,15860.0,111,47,15855,33,15860,10
2016-06-15 13:01:00,13:01:00,13:01:56,53833,53993,15855.0,7,15860.0,23,15855.0,15860.0,15855.0,15860.0,82,-20,15860,13,15865,46
2016-06-15 13:02:00,13:02:00,13:02:59,54003,54164,15860.0,31,15865.0,26,15865.0,15880.0,15865.0,15880.0,71,19,15875,44,15885,37
2016-06-15 13:03:00,13:03:10,13:03:58,54177,54284,15875.0,29,15880.0,30,15875.0,15880.0,15875.0,15875.0,38,-18,15870,41,15875,14
2016-06-15 13:04:00,13:04:25,13:04:50,54321,54384,15870.0,28,15875.0,19,15875.0,15875.0,15875.0,15875.0,23,1,15875,10,15875,11
2016-06-15 13:05:00,13:05:01,13:05:59,54397,54531,15870.0,31,15875.0,4,15875.0,15885.0,15875.0,15885.0,51,27,15885,11,15890,94
2016-06-15 13:06:00,13:06:05,13:06:46,54546,54699,15885.0,34,15890.0,76,15890.0,15900.0,15890.0,15895.0,206,69,15890,36,15895,25
2016-06-15 13:07:00,13:07:08,13:07:59,54727,54830,15890.0,26,15895.0,36,15890.0,15895.0,15890.0,15895.0,46,0,15890,27,15895,28
2016-06-15 13:08:00,13:08:29,13:08:53,54880,54938,15890.0,42,15895.0,11,15895.0,15900.0,15895.0,15900.0,45,45,15895,47,15900,12
2016-06-15 13:09:00,13:09:05,13:09:55,54958,55131,15895.0,43,15900.0,36,15895.0,15895.0,15875.0,15875.0,163,-45,15870,34,15875,5
2016-06-15 13:10:00,13:10:00,13:10:50,55139,55259,15870.0,34,15875.0,5,15875.0,15875.0,15875.0,15875.0,36,-17,15870,46,15875,8
2016-06-15 13:11:00,13:11:28,13:11:58,55316,55359,15875.0,7,15880.0,42,15875.0,15875.0,15875.0,15875.0,18,-16,15875,1,15880,49
2016-06-15 13:12:00,13:12:01,13:12:59,55370,55527,15875.0,1,15880.0,48,15875.0,15895.0,15875.0,15895.0,103,29,15895,14,15900,35
2016-06-15 13:13:00,13:13:09,13:13:59,55542,55665,15895.0,16,15900.0,36,15895.0,15905.0,15895.0,15905.0,47,-1,15900,15,15905,62
2016-06-15 13:14:00,13:14:03,13:14:57,55672,55851,15900.0,15,15905.0,63,15900.0,15900.0,15895.0,15900.0,167,-90,15900,3,15905,45
2016-06-15 13:15:00,13:15:00,13:15:48,55856,56000,15900.0,19,15905.0,45,15900.0,15900.0,15895.0,15895.0,112,-2,15890,38,15895,8
2016-06-15 13:16:00,13:16:00,13:16:55,56009,56293,15890.0,43,15895.0,1,15895.0,15915.0,15895.0,15915.0,240,70,15915,12,15920,31
2016-06-15 13:17:00,13:17:08,13:17:58,56324,56500,15915.0,36,15920.0,13,15920.0,15920.0,15910.0,15910.0,155,-81,15910,33,15915,7
2016-06-15 13:18:00,13:18:06,13:18:54,56513,56600,15910.0,42,15915.0,3,15915.0,15920.0,15915.0,15915.0,37,-3,15910,33,15915,18
2016-06-15 13:19:00,13:19:01,13:19:52,56607,56779,15910.0,38,15915.0,12,15915.0,15925.0,15915.0,15920.0,125,17,15920,18,15925,40
2016-06-15 13:20:00,13:20:35,13:20:57,56809,56878,15920.0,54,15925.0,24,15925.0,15925.0,15925.0,15925.0,75,0,15920,57,15930,43
2016-06-15 13:21:00,13:21:00,13:21:45,56882,56936,15920.0,58,15930.0,41,15925.0,15930.0,15920.0,15930.0,31,12,15925,47,15930,9
2016-06-15 13:22:00,13:22:02,13:22:43,56959,57091,15925.0,39,15930.0,41,15930.0,15940.0,15930.0,15935.0,188,78,15930,33,15935,19
2016-06-15 13:23:00,13:23:20,13:23:57,57124,57148,15930.0,66,15935.0,17,15935.0,15935.0,15935.0,15935.0,6,6,15935,18,15935,16
2016-06-15 13:24:00,13:24:00,13:24:48,57150,57288,15930.0,67,15935.0,16,15935.0,15935.0,15920.0,15925.0,149,-72,15925,19,15930,37
2016-06-15 13:25:00,13:25:14,13:25:29,57326,57368,15925.0,49,15930.0,43,15925.0,15925.0,15925.0,15925.0,70,-6,15920,37,15930,36
2016-06-15 13:26:00,13:26:00,13:26:58,57398,57474,15920.0,47,15925.0,10,15925.0,15925.0,15920.0,15925.0,44,6,15920,59,15930,39
2016-06-15 13:27:00,13:27:05,13:27:57,57489,57603,15920.0,61,15925.0,17,15925.0,15930.0,15920.0,15920.0,101,-29,15915,44,15920,5
2016-06-15 13:28:00,13:28:01,13:28:57,57613,57740,15915.0,63,15920.0,7,15920.0,15920.0,15910.0,15915.0,98,0,15915,17,15920,42
2016-06-15 13:29:00,13:29:20,13:29:55,57766,57905,15915.0,18,15920.0,42,15915.0,15915.0,15910.0,15915.0,119,-51,15915,16,15920,42
2016-06-15 13:30:00,13:30:00,13:30:57,57916,58070,15915.0,10,15920.0,41,15920.0,15920.0,15910.0,15915.0,73,-44,15910,20,15915,34
2016-06-15 13:31:00,13:31:05,13:31:59,58081,58231,15910.0,35,15915.0,18,15915.0,15915.0,15915.0,15915.0,89,-19,15910,33,15915,4
2016-06-15 13:32:00,13:32:01,13:32:56,58238,58397,15910.0,29,15915.0,24,15910.0,15910.0,15900.0,15900.0,111,-91,15900,90,15905,10
2016-06-15 13:33:00,13:33:01,13:33:52,58406,58566,15900.0,81,15905.0,25,15900.0,15905.0,15890.0,15890.0,138,-75,15890,54,15895,37
2016-06-15 13:34:00,13:34:02,13:34:58,58585,58829,15890.0,55,15895.0,37,15890.0,15895.0,15885.0,15890.0,239,-110,15890,30,15895,21
2016-06-15 13:35:00,13:35:02,13:35:55,58840,58991,15890.0,23,15895.0,34,15890.0,15895.0,15885.0,15895.0,113,-9,15895,3,15900,63
2016-06-15 13:36:00,13:36:05,13:36:58,59011,59269,15895.0,17,15900.0,51,15895.0,15895.0,15880.0,15890.0,225,-122,15890,51,15895,22
2016-06-15 13:37:00,13:37:08,13:37:54,59288,59453,15890.0,49,15895.0,23,15890.0,15910.0,15890.0,15910.0,151,51,15905,13,15910,61
2016-06-15 13:38:00,13:38:03,13:38:59,59472,59680,15905.0,17,15910.0,60,15905.0,15910.0,15900.0,15905.0,219,-3,15905,4,15910,52
2016-06-15 13:39:00,13:39:02,13:39:53,59685,59862,15905.0,7,15910.0,52,15905.0,15915.0,15900.0,15915.0,227,-63,15910,48,15915,3
2016-06-15 13:40:00,13:40:00,13:40:48,59871,60039,15910.0,15,15915.0,36,15910.0,15910.0,15895.0,15905.0,118,-13,15905,2,15910,55
2016-06-15 13:41:00,13:41:05,13:41:51,60063,60135,15905.0,15,15910.0,44,15905.0,15905.0,15900.0,15900.0,30,-12,15900,12,15905,65
2016-06-15 13:42:00,13:42:09,13:42:53,60144,60249,15900.0,20,15905.0,65,15900.0,15905.0,15900.0,15905.0,111,15,15900,32,15905,9
2016-06-15 13:43:00,13:43:19,13:43:34,60275,60331,15905.0,16,15910.0,32,15905.0,15915.0,15905.0,15915.0,58,56,15915,3,15920,67
2016-06-15 13:44:00,13:44:12,13:44:57,60370,60514,15915.0,13,15920.0,64,15915.0,15915.0,15910.0,15915.0,105,14,15910,47,15915,4
2016-06-15 13:45:00,13:45:00,13:45:56,60520,60735,15910.0,48,15915.0,7,15915.0,15930.0,15915.0,15930.0,199,150,15930,20,15935,37
2016-06-15 13:46:00,13:46:03,13:46:59,60754,60923,15930.0,33,15935.0,34,15930.0,15935.0,15930.0,15935.0,98,-9,15930,41,15935,28
2016-06-15 13:47:00,13:47:00,13:47:58,60926,61138,15930.0,41,15935.0,28,15930.0,15930.0,15925.0,15930.0,185,36,15925,41,15935,60
2016-06-15 13:48:00,13:48:01,13:48:51,61146,61267,15925.0,48,15935.0,60,15930.0,15940.0,15930.0,15940.0,74,33,15940,48,15945,63
2016-06-15 13:49:00,13:49:03,13:49:59,61285,61523,15940.0,73,15945.0,74,15940.0,15940.0,15930.0,15935.0,225,-175,15930,84,15940,65
2016-06-15 13:50:00,13:50:00,13:50:58,61528,61737,15935.0,9,15940.0,68,15935.0,15935.0,15920.0,15925.0,196,-142,15925,16,15930,68
2016-06-15 13:51:00,13:51:04,13:51:59,61753,61877,15925.0,45,15930.0,22,15925.0,15925.0,15925.0,15925.0,35,-27,15925,21,15930,56
2016-06-15 13:52:00,13:52:00,13:52:58,61882,62049,15925.0,9,15930.0,67,15925.0,15925.0,15920.0,15925.0,97,29,15920,73,15930,59
2016-06-15 13:53:00,13:53:00,13:53:45,62053,62198,15920.0,73,15930.0,64,15925.0,15930.0,15925.0,15930.0,86,-53,15925,45,15930,44
2016-06-15 13:54:00,13:54:00,13:54:58,62225,62528,15925.0,66,15930.0,28,15930.0,15930.0,15905.0,15905.0,383,-186,15905,40,15910,42
2016-06-15 13:55:00,13:55:00,13:55:59,62535,62753,15905.0,30,15910.0,44,15910.0,15920.0,15910.0,15915.0,222,112,15915,6,15920,51
2016-06-15 13:56:00,13:56:01,13:56:58,62763,63093,15915.0,59,15920.0,42,15920.0,15920.0,15905.0,15905.0,399,-285,15905,5,15910,86
2016-06-15 13:57:00,13:57:02,13:57:58,63105,63310,15905.0,21,15910.0,80,15910.0,15915.0,15910.0,15915.0,178,157,15910,60,15915,31
2016-06-15 13:58:00,13:58:04,13:58:59,63328,63681,15910.0,42,15915.0,59,15910.0,15915.0,15890.0,15890.0,580,-442,15885,60,15890,11
2016-06-15 13:59:00,13:59:00,13:59:59,63684,64014,15885.0,60,15890.0,11,15890.0,15895.0,15880.0,15885.0,356,5,15885,12,15890,63
2016-06-15 14:00:00,14:00:00,14:00:58,64017,64657,15885.0,12,15890.0,63,15885.0,15890.0,15875.0,15885.0,1299,-182,15880,78,15885,61
2016-06-15 14:01:00,14:01:00,14:01:55,64660,64897,15880.0,78,15885.0,61,15885.0,15885.0,15875.0,15880.0,351,-83,15880,51,15885,85
2016-06-15 14:02:00,14:02:00,14:02:54,64909,65224,15880.0,68,15885.0,72,15885.0,15900.0,15880.0,15900.0,456,266,15895,59,15900,67
2016-06-15 14:03:00,14:03:00,14:03:59,65243,65562,15895.0,78,15900.0,46,15900.0,15910.0,15900.0,15905.0,386,98,15900,61,15905,76
2016-06-15 14:04:00,14:04:00,14:04:59,65567,65782,15900.0,64,15905.0,69,15905.0,15905.0,15900.0,15900.0,190,-22,15900,26,15905,149
2016-06-15 14:05:00,14:05:00,14:05:59,65785,66139,15900.0,26,15905.0,149,15900.0,15915.0,15900.0,15915.0,540,129,15910,87,15915,4
2016-06-15 14:06:00,14:06:00,14:06:57,66142,66379,15910.0,87,15915.0,4,15915.0,15925.0,15910.0,15925.0,497,271,15925,10,15930,132
2016-06-15 14:07:00,14:07:04,14:07:59,66393,66607,15925.0,92,15930.0,130,15925.0,15930.0,15910.0,15915.0,375,-277,15910,71,15915,1
2016-06-15 14:08:00,14:08:00,14:08:58,66613,66862,15910.0,70,15915.0,3,15910.0,15925.0,15905.0,15925.0,333,-60,15920,167,15925,69
2016-06-15 14:09:00,14:09:00,14:09:59,66868,67105,15920.0,166,15925.0,86,15925.0,15935.0,15920.0,15930.0,420,208,15925,76,15935,98
