,ST,ET,sidx,eidx,bB,bBS,bA,bAS,O,H,L,C,V,OF,eB,eBS,eA,eAS
2016-08-03 08:00:00,08:00:00,08:00:59,2829,3360,16155.0,9,16165.0,30,16160.0,16170.0,16135.0,16145.0,685,-110,16140,10,16145,19
2016-08-03 08:01:00,08:01:00,08:01:59,3363,3918,16140.0,10,16145.0,19,16145.0,16145.0,16125.0,16130.0,659,42,16125,19,16130,11
2016-08-03 08:02:00,08:02:00,08:02:59,3922,4411,16125.0,19,16130.0,13,16125.0,16140.0,16120.0,16120.0,563,-181,16120,33,16130,18
2016-08-03 08:03:00,08:03:00,08:03:49,4412,4917,16120.0,14,16125.0,34,16120.0,16150.0,16120.0,16150.0,666,173,16145,33,16150,13
2016-08-03 08:04:00,08:04:02,08:04:59,4944,5355,16145.0,30,16150.0,39,16145.0,16145.0,16120.0,16125.0,447,-133,16120,16,16125,17
2016-08-03 08:05:00,08:05:00,08:05:59,5356,5728,16120.0,19,16125.0,6,16120.0,16125.0,16110.0,16120.0,388,-200,16115,12,16120,30
2016-08-03 08:06:00,08:06:00,08:06:59,5731,6163,16115.0,12,16120.0,30,16115.0,16130.0,16110.0,16130.0,456,246,16125,31,16130,22
2016-08-03 08:07:00,08:07:00,08:07:54,6166,6473,16125.0,31,16130.0,22,16125.0,16135.0,16120.0,16120.0,306,-88,16120,16,16125,28
2016-08-03 08:08:00,08:08:00,08:08:58,6489,6766,16120.0,20,16125.0,23,16120.0,16130.0,16120.0,16130.0,206,38,16125,28,16130,27
2016-08-03 08:09:00,08:09:00,08:09:47,6771,7003,16125.0,24,16130.0,29,16125.0,16140.0,16125.0,16140.0,194,-16,16135,31,16140,19
2016-08-03 08:10:00,08:10:00,08:10:58,7025,7393,16135.0,38,16140.0,30,16135.0,16150.0,16130.0,16150.0,392,212,16145,51,16150,6
2016-08-03 08:11:00,08:11:02,08:11:59,7398,7799,16145.0,52,16150.0,11,16150.0,16155.0,16140.0,16150.0,472,40,16150,8,16155,36
2016-08-03 08:12:00,08:12:00,08:12:53,7802,8103,16150.0,8,16155.0,36,16150.0,16165.0,16145.0,16165.0,295,47,16165,6,16170,34
2016-08-03 08:13:00,08:13:01,08:13:59,8115,8449,16160.0,24,16165.0,26,16160.0,16170.0,16155.0,16170.0,309,-2,16165,64,16175,36
2016-08-03 08:14:00,08:14:00,08:14:59,8452,8794,16165.0,64,16175.0,36,16170.0,16180.0,16165.0,16175.0,375,-28,16170,30,16175,36
2016-08-03 08:15:00,08:15:01,08:15:58,8799,9017,16170.0,38,16175.0,40,16175.0,16175.0,16160.0,16165.0,179,-9,16160,26,16165,43
2016-08-03 08:16:00,08:16:00,08:16:57,9022,9258,16160.0,27,16165.0,42,16160.0,16165.0,16150.0,16155.0,193,-131,16155,36,16160,41
2016-08-03 08:17:00,08:17:00,08:17:57,9262,9528,16155.0,19,16160.0,41,16155.0,16175.0,16155.0,16165.0,218,-2,16160,38,16170,33
2016-08-03 08:18:00,08:18:00,08:18:57,9531,9815,16165.0,7,16170.0,36,16165.0,16180.0,16160.0,16170.0,254,-70,16170,17,16175,42
2016-08-03 08:19:00,08:19:00,08:19:55,9822,10147,16170.0,8,16175.0,56,16170.0,16170.0,16155.0,16155.0,380,-220,16155,4,16160,36
2016-08-03 08:20:00,08:20:01,08:20:58,10158,10484,16155.0,21,16160.0,31,16155.0,16160.0,16145.0,16160.0,379,-148,16155,14,16160,13
2016-08-03 08:21:00,08:21:00,08:21:53,10492,10724,16155.0,28,16160.0,13,16160.0,16165.0,16155.0,16155.0,209,-39,16155,30,16160,24
2016-08-03 08:22:00,08:22:03,08:22:44,10746,10963,16155.0,41,16160.0,17,16160.0,16165.0,16155.0,16165.0,222,-76,16160,26,16165,41
2016-08-03 08:23:00,08:23:00,08:23:59,10993,11254,16160.0,35,16165.0,50,16165.0,16180.0,16160.0,16180.0,282,40,16175,31,16180,41
2016-08-03 08:24:00,08:24:01,08:24:59,11258,11438,16175.0,33,16180.0,41,16175.0,16180.0,16170.0,16175.0,128,-40,16170,26,16175,36
2016-08-03 08:25:00,08:25:03,08:25:59,11443,11661,16170.0,24,16175.0,36,16170.0,16180.0,16165.0,16180.0,168,-8,16175,34,16180,33
2016-08-03 08:26:00,08:26:00,08:26:59,11666,11933,16175.0,35,16180.0,32,16180.0,16190.0,16175.0,16190.0,289,107,16185,45,16190,61
2016-08-03 08:27:00,08:27:00,08:27:49,11934,12132,16185.0,41,16190.0,67,16190.0,16190.0,16175.0,16175.0,182,-104,16175,34,16180,28
2016-08-03 08:28:00,08:28:00,08:28:58,12150,12357,16175.0,26,16180.0,36,16175.0,16175.0,16165.0,16165.0,214,-12,16165,5,16170,55
2016-08-03 08:29:00,08:29:11,08:29:59,12382,12534,16165.0,7,16170.0,49,16165.0,16175.0,16160.0,16175.0,157,31,16170,42,16175,14
2016-08-03 08:30:00,08:30:00,08:30:55,12535,12757,16165.0,4,16170.0,45,16175.0,16175.0,16160.0,16165.0,212,-2,16160,42,16165,4
2016-08-03 08:31:00,08:31:01,08:31:59,12774,12867,16160.0,33,16165.0,23,16165.0,16170.0,16160.0,16165.0,57,11,16160,81,16165,34
2016-08-03 08:32:00,08:32:05,08:32:53,12876,13046,16160.0,83,16165.0,42,16160.0,16165.0,16155.0,16160.0,155,-3,16160,48,16165,20
2016-08-03 08:33:00,08:33:09,08:33:59,13061,13222,16160.0,44,16165.0,29,16160.0,16160.0,16155.0,16155.0,123,-79,16150,51,16160,40
2016-08-03 08:34:00,08:34:00,08:34:56,13227,13395,16150.0,38,16155.0,11,16155.0,16160.0,16145.0,16160.0,149,-31,16155,66,16160,24
2016-08-03 08:35:00,08:35:01,08:35:56,13402,13612,16155.0,56,16160.0,25,16155.0,16155.0,16145.0,16150.0,169,-105,16145,1,16150,41
2016-08-03 08:36:00,08:36:04,08:36:57,13628,13807,16145.0,17,16150.0,43,16145.0,16145.0,16140.0,16140.0,161,-111,16140,40,16145,32
2016-08-03 08:37:00,08:37:14,08:37:58,13822,13918,16140.0,40,16145.0,34,16145.0,16145.0,16140.0,16145.0,86,16,16145,36,16150,28
2016-08-03 08:38:00,08:38:03,08:38:57,13933,14091,16145.0,51,16150.0,29,16145.0,16155.0,16145.0,16145.0,139,3,16145,40,16150,34
2016-08-03 08:39:00,08:39:19,08:39:59,14130,14267,16145.0,40,16150.0,29,16150.0,16150.0,16145.0,16145.0,102,-52,16140,57,16150,44
2016-08-03 08:40:00,08:40:04,08:40:54,14284,14428,16140.0,18,16145.0,41,16145.0,16145.0,16140.0,16140.0,125,45,16135,35,16140,33
2016-08-03 08:41:00,08:41:05,08:41:59,14441,14551,16135.0,18,16140.0,47,16135.0,16145.0,16135.0,16145.0,91,-39,16140,4,16145,17
2016-08-03 08:42:00,08:42:01,08:42:51,14553,14676,16140.0,46,16145.0,17,16140.0,16150.0,16140.0,16150.0,100,44,16145,24,16150,38
2016-08-03 08:43:00,08:43:00,08:43:59,14686,14917,16145.0,27,16150.0,38,16145.0,16155.0,16145.0,16155.0,215,-53,16150,45,16155,6
2016-08-03 08:44:00,08:44:00,08:44:55,14918,15228,16150.0,54,16155.0,2,16155.0,16175.0,16150.0,16170.0,391,98,16165,40,16175,33
2016-08-03 08:45:00,08:45:00,08:45:58,15240,15617,16165.0,31,16170.0,29,16165.0,16170.0,16165.0,16170.0,491,214,16165,44,16175,48
2016-08-03 08:46:00,08:46:03,08:46:53,15625,15905,16165.0,36,16170.0,11,16170.0,16185.0,16170.0,16175.0,299,6,16170,54,16175,17
2016-08-03 08:47:00,08:47:00,08:47:50,15910,16006,16170.0,54,16175.0,19,16170.0,16175.0,16165.0,16165.0,65,-53,16165,18,16170,42
2016-08-03 08:48:00,08:48:05,08:48:52,16029,16101,16165.0,26,16170.0,43,16165.0,16170.0,16165.0,16170.0,67,-25,16165,23,16170,34
2016-08-03 08:49:00,08:49:13,08:49:54,16129,16277,16165.0,32,16170.0,32,16165.0,16170.0,16165.0,16165.0,168,32,16165,15,16170,51
2016-08-03 08:50:00,08:50:06,08:50:50,16295,16348,16165.0,40,16170.0,40,16165.0,16165.0,16160.0,16165.0,28,-18,16160,45,16165,34
2016-08-03 08:51:00,08:51:01,08:51:59,16359,16507,16160.0,43,16165.0,34,16160.0,16160.0,16150.0,16150.0,106,-68,16150,49,16160,37
2016-08-03 08:52:00,08:52:06,08:52:51,16516,16584,16155.0,17,16160.0,37,16155.0,16155.0,16155.0,16155.0,26,-26,16155,20,16160,42
2016-08-03 08:53:00,08:53:02,08:53:46,16600,16704,16155.0,23,16160.0,39,16155.0,16160.0,16155.0,16155.0,44,-6,16155,5,16160,40
2016-08-03 08:54:00,08:54:03,08:54:59,16730,16897,16155.0,21,16160.0,46,16155.0,16155.0,16150.0,16150.0,110,-54,16150,19,16155,32
2016-08-03 08:55:00,08:55:04,08:55:59,16913,17193,16150.0,35,16155.0,25,16155.0,16170.0,16155.0,16160.0,274,-75,16155,54,16165,50
2016-08-03 08:56:00,08:56:08,08:56:58,17207,17307,16160.0,33,16165.0,40,16160.0,16170.0,16160.0,16170.0,62,16,16165,25,16170,84
2016-08-03 08:57:00,08:57:05,08:57:51,17321,17437,16165.0,41,16170.0,76,16170.0,16170.0,16165.0,16165.0,146,-18,16165,76,16170,45
2016-08-03 08:58:00,08:58:02,08:58:52,17449,17610,16165.0,81,16170.0,39,16165.0,16170.0,16150.0,16155.0,225,-129,16155,14,16160,47
2016-08-03 08:59:00,08:59:05,08:59:54,17627,17803,16155.0,74,16160.0,50,16155.0,16155.0,16145.0,16155.0,216,-136,16150,36,16155,10
2016-08-03 09:00:00,09:00:00,09:00:57,17815,18016,16150.0,27,16155.0,33,16155.0,16155.0,16140.0,16145.0,168,9,16140,41,16145,21
2016-08-03 09:01:00,09:01:09,09:01:58,18036,18161,16140.0,49,16145.0,51,16140.0,16140.0,16140.0,16140.0,112,-66,16140,23,16145,49
2016-08-03 09:02:00,09:02:00,09:02:50,18168,18343,16140.0,29,16145.0,49,16145.0,16150.0,16140.0,16150.0,187,39,16145,23,16150,42
2016-08-03 09:03:00,09:03:00,09:03:57,18356,18512,16145.0,39,16150.0,28,16145.0,16150.0,16140.0,16140.0,126,-56,16140,36,16145,45
2016-08-03 09:04:00,09:04:14,09:04:58,18533,18609,16140.0,44,16145.0,37,16145.0,16145.0,16140.0,16140.0,63,51,16140,46,16145,27
2016-08-03 09:05:00,09:05:00,09:05:59,18613,18738,16140.0,46,16145.0,28,16140.0,16145.0,16140.0,16140.0,59,11,16140,18,16145,28
2016-08-03 09:06:00,09:06:00,09:06:58,18742,19052,16140.0,31,16145.0,28,16145.0,16145.0,16130.0,16130.0,307,-76,16130,20,16135,21
2016-08-03 09:07:00,09:07:01,09:07:59,19059,19326,16130.0,36,16135.0,21,16130.0,16130.0,16125.0,16130.0,243,-52,16125,58,16130,2
2016-08-03 09:08:00,09:08:00,09:08:56,19329,19528,16125.0,58,16130.0,2,16130.0,16140.0,16130.0,16140.0,183,55,16140,32,16145,32
2016-08-03 09:09:00,09:09:01,09:09:58,19541,19785,16140.0,39,16145.0,34,16140.0,16150.0,16140.0,16145.0,183,12,16145,31,16150,17
2016-08-03 09:10:00,09:10:01,09:10:51,19796,19958,16145.0,17,16150.0,46,16145.0,16155.0,16145.0,16155.0,134,-42,16155,16,16160,38
2016-08-03 09:11:00,09:11:01,09:11:53,19977,20093,16155.0,28,16160.0,27,16155.0,16165.0,16155.0,16160.0,92,-20,16160,6,16165,48
2016-08-03 09:12:00,09:12:01,09:12:52,20108,20228,16160.0,30,16165.0,54,16160.0,16170.0,16160.0,16165.0,113,11,16160,40,16170,61
2016-08-03 09:13:00,09:13:02,09:13:59,20245,20365,16160.0,37,16165.0,21,16160.0,16165.0,16160.0,16165.0,86,-22,16160,50,16170,93
2016-08-03 09:14:00,09:14:01,09:14:52,20369,20525,16165.0,3,16170.0,93,16165.0,16170.0,16165.0,16165.0,214,144,16165,17,16170,30
2016-08-03 09:15:00,09:15:01,09:15:59,20537,20824,16165.0,26,16170.0,25,16165.0,16165.0,16150.0,16160.0,385,-59,16160,2,16165,32
2016-08-03 09:16:00,09:16:02,09:16:52,20832,20974,16155.0,30,16160.0,39,16155.0,16155.0,16140.0,16140.0,157,-107,16140,21,16145,40
2016-08-03 09:17:00,09:17:02,09:17:57,20990,21133,16140.0,37,16145.0,34,16140.0,16145.0,16135.0,16145.0,131,47,16145,20,16150,40
2016-08-03 09:18:00,09:18:02,09:18:53,21148,21261,16145.0,41,16150.0,36,16145.0,16145.0,16140.0,16145.0,121,17,16145,24,16150,56
2016-08-03 09:19:00,09:19:01,09:19:58,21271,21483,16145.0,37,16150.0,26,16150.0,16160.0,16145.0,16160.0,267,123,16155,39,16160,22
2016-08-03 09:20:00,09:20:03,09:20:57,21492,21597,16155.0,44,16160.0,22,16155.0,16155.0,16145.0,16155.0,73,-39,16150,36,16155,4
2016-08-03 09:21:00,09:21:03,09:21:53,21607,21692,16150.0,35,16155.0,14,16150.0,16155.0,16150.0,16155.0,38,-2,16155,10,16160,34
2016-08-03 09:22:00,09:22:02,09:22:53,21713,21841,16155.0,29,16160.0,23,16160.0,16170.0,16155.0,16165.0,88,12,16165,22,16170,19
2016-08-03 09:23:00,09:23:03,09:23:53,21856,22002,16165.0,22,16170.0,14,16165.0,16170.0,16165.0,16170.0,104,40,16170,25,16175,49
2016-08-03 09:24:00,09:24:03,09:24:53,22014,22109,16170.0,32,16175.0,46,16170.0,16175.0,16170.0,16170.0,52,-14,16170,12,16175,41
2016-08-03 09:25:00,09:25:02,09:25:54,22121,22241,16170.0,20,16175.0,49,16170.0,16175.0,16165.0,16165.0,88,-51,16165,27,16170,15
2016-08-03 09:26:00,09:26:34,09:26:55,22284,22359,16165.0,41,16170.0,16,16170.0,16180.0,16170.0,16180.0,105,105,16175,39,16180,21
2016-08-03 09:27:00,09:27:04,09:27:56,22378,22818,16175.0,49,16180.0,21,16180.0,16205.0,16175.0,16205.0,635,258,16205,7,16210,38
2016-08-03 09:28:00,09:28:02,09:28:58,22832,23178,16205.0,32,16210.0,19,16210.0,16220.0,16200.0,16210.0,464,60,16205,33,16210,21
2016-08-03 09:29:00,09:29:20,09:29:59,23213,23364,16205.0,26,16210.0,37,16210.0,16220.0,16210.0,16220.0,135,65,16215,34,16220,45
2016-08-03 09:30:00,09:30:03,09:30:57,23373,23667,16215.0,45,16220.0,33,16220.0,16235.0,16220.0,16225.0,386,294,16225,30,16230,44
2016-08-03 09:31:00,09:31:05,09:31:59,23684,23871,16225.0,27,16230.0,53,16225.0,16225.0,16210.0,16220.0,166,-78,16215,37,16220,31
2016-08-03 09:32:00,09:32:02,09:32:56,23879,24113,16215.0,44,16220.0,17,16220.0,16225.0,16215.0,16215.0,193,10,16215,15,16220,34
2016-08-03 09:33:00,09:33:24,09:33:56,24161,24381,16215.0,22,16220.0,28,16215.0,16215.0,16195.0,16195.0,237,-157,16195,14,16200,38
2016-08-03 09:34:00,09:34:02,09:34:53,24394,24662,16195.0,45,16200.0,26,16200.0,16215.0,16200.0,16215.0,264,116,16210,41,16215,26
2016-08-03 09:35:00,09:35:08,09:35:58,24688,24838,16210.0,44,16215.0,26,16210.0,16220.0,16210.0,16220.0,137,27,16220,8,16225,40
2016-08-03 09:36:00,09:36:12,09:36:58,24860,25140,16220.0,20,16225.0,69,16220.0,16225.0,16215.0,16220.0,431,56,16215,52,16225,57
2016-08-03 09:37:00,09:37:17,09:37:21,25159,25194,16215.0,14,16220.0,34,16215.0,16220.0,16215.0,16220.0,32,2,16215,30,16220,17
2016-08-03 09:38:00,09:38:17,09:38:46,25247,25347,16215.0,28,16220.0,31,16215.0,16220.0,16210.0,16215.0,77,-7,16210,38,16220,41
2016-08-03 09:39:00,09:39:06,09:39:59,25370,25543,16215.0,21,16220.0,35,16215.0,16225.0,16215.0,16225.0,141,3,16225,22,16230,53
2016-08-03 09:40:00,09:40:12,09:40:57,25561,25701,16225.0,40,16230.0,51,16225.0,16230.0,16220.0,16220.0,115,-13,16215,33,16220,25
2016-08-03 09:41:00,09:41:01,09:41:49,25709,25975,16215.0,49,16220.0,11,16220.0,16235.0,16220.0,16220.0,291,15,16215,28,16220,34
2016-08-03 09:42:00,09:42:13,09:42:59,25994,26063,16215.0,49,16220.0,40,16220.0,16220.0,16215.0,16220.0,27,25,16215,46,16220,24
2016-08-03 09:43:00,09:43:02,09:43:23,26069,26181,16215.0,41,16220.0,27,16215.0,16215.0,16205.0,16210.0,154,-50,16210,6,16215,29
2016-08-03 09:44:00,09:44:09,09:44:58,26205,26317,16210.0,39,16215.0,22,16215.0,16225.0,16215.0,16225.0,91,19,16220,56,16225,49
2016-08-03 09:45:00,09:45:03,09:45:58,26327,26526,16220.0,66,16225.0,14,16220.0,16225.0,16210.0,16210.0,197,-31,16210,21,16215,27
2016-08-03 09:46:00,09:46:06,09:46:59,26539,26651,16210.0,32,16215.0,26,16215.0,16215.0,16210.0,16210.0,73,-21,16210,6,16215,42
2016-08-03 09:47:00,09:47:04,09:47:52,26655,26777,16210.0,15,16215.0,49,16210.0,16215.0,16210.0,16215.0,119,-21,16210,35,16215,35
2016-08-03 09:48:00,09:48:00,09:48:58,26782,26899,16210.0,35,16215.0,17,16215.0,16215.0,16205.0,16205.0,76,-28,16205,20,16210,30
2016-08-03 09:49:00,09:49:01,09:49:45,26906,27075,16205.0,40,16210.0,27,16210.0,16210.0,16210.0,16210.0,173,25,16210,10,16215,43
2016-08-03 09:50:00,09:50:01,09:50:42,27096,27197,16210.0,38,16215.0,44,16215.0,16220.0,16215.0,16220.0,104,104,16215,41,16220,19
2016-08-03 09:51:00,09:51:15,09:51:58,27226,27340,16215.0,41,16220.0,32,16215.0,16215.0,16210.0,16210.0,178,-16,16210,16,16215,94
2016-08-03 09:52:00,09:52:17,09:52:54,27360,27430,16210.0,37,16215.0,33,16215.0,16220.0,16215.0,16215.0,54,6,16210,44,16215,20
2016-08-03 09:53:00,09:53:11,09:53:37,27450,27485,16210.0,43,16215.0,25,16210.0,16210.0,16210.0,16210.0,16,-16,16210,13,16215,51
2016-08-03 09:54:00,09:54:00,09:54:46,27507,27681,16210.0,49,16215.0,23,16215.0,16225.0,16215.0,16225.0,142,18,16220,40,16225,2
2016-08-03 09:55:00,09:55:02,09:55:37,27699,27799,16220.0,42,16225.0,33,16225.0,16225.0,16220.0,16225.0,93,-7,16225,14,16230,28
2016-08-03 09:56:00,09:56:03,09:56:47,27834,27966,16225.0,34,16230.0,25,16225.0,16225.0,16220.0,16220.0,108,-26,16215,39,16220,14
2016-08-03 09:57:00,09:57:08,09:57:57,27982,28137,16215.0,46,16220.0,14,16220.0,16235.0,16220.0,16235.0,152,104,16230,19,16235,14
2016-08-03 09:58:00,09:58:12,09:58:58,28162,28461,16230.0,26,16235.0,25,16235.0,16245.0,16230.0,16245.0,378,143,16240,35,16245,11
2016-08-03 09:59:00,09:59:00,09:59:59,28464,28638,16240.0,36,16250.0,99,16245.0,16250.0,16245.0,16245.0,149,-27,16240,51,16250,80
2016-08-03 10:00:00,10:00:00,10:00:59,28639,28846,16245.0,1,16250.0,90,16245.0,16255.0,16245.0,16250.0,237,61,16250,13,16255,40
2016-08-03 10:01:00,10:01:01,10:01:50,28855,29058,16250.0,26,16255.0,35,16250.0,16255.0,16245.0,16245.0,163,29,16245,54,16250,15
2016-08-03 10:02:00,10:02:09,10:02:59,29090,29159,16245.0,40,16250.0,35,16245.0,16245.0,16245.0,16245.0,44,-44,16240,43,16245,23
2016-08-03 10:03:00,10:03:00,10:03:54,29162,29271,16240.0,43,16245.0,23,16245.0,16245.0,16245.0,16245.0,65,-5,16240,56,16245,5
2016-08-03 10:04:00,10:04:11,10:04:52,29290,29338,16240.0,44,16245.0,36,16240.0,16240.0,16240.0,16240.0,3,-3,16240,58,16245,34
2016-08-03 10:05:00,10:05:05,10:05:55,29354,29564,16240.0,68,16245.0,57,16240.0,16255.0,16230.0,16230.0,231,-9,16230,40,16235,18
2016-08-03 10:06:00,10:06:00,10:06:55,29570,29736,16230.0,47,16235.0,19,16235.0,16235.0,16230.0,16230.0,135,-123,16230,12,16235,40
2016-08-03 10:07:00,10:07:03,10:07:46,29748,29881,16230.0,23,16235.0,43,16230.0,16230.0,16225.0,16230.0,81,-21,16225,22,16230,2
2016-08-03 10:08:00,10:08:26,10:08:58,29917,30039,16225.0,19,16230.0,55,16225.0,16225.0,16220.0,16220.0,122,-109,16220,2,16225,47
2016-08-03 10:09:00,10:09:00,10:09:57,30046,30191,16215.0,37,16220.0,11,16220.0,16225.0,16220.0,16225.0,143,1,16220,48,16225,4
2016-08-03 10:10:00,10:10:02,10:10:57,30204,30317,16220.0,42,16225.0,8,16225.0,16230.0,16225.0,16230.0,69,-15,16230,10,16235,58
2016-08-03 10:11:00,10:11:11,10:11:58,30329,30443,16230.0,8,16235.0,49,16230.0,16235.0,16230.0,16235.0,91,29,16230,58,16240,122
2016-08-03 10:12:00,10:12:08,10:12:52,30462,30527,16230.0,43,16235.0,8,16235.0,16240.0,16235.0,16235.0,29,-1,16230,34,16235,16
2016-08-03 10:13:00,10:13:07,10:13:43,30541,30692,16230.0,42,16235.0,11,16235.0,16235.0,16220.0,16220.0,165,-24,16215,38,16220,15
2016-08-03 10:14:00,10:14:00,10:14:00,0,0,0.0,0,0.0,0,16220.0,16220.0,16220.0,16220.0,0,0,0,0,0,0
2016-08-03 10:15:00,10:15:00,10:15:57,30777,30959,16215.0,52,16220.0,16,16220.0,16230.0,16220.0,16230.0,165,83,16225,62,16230,5
2016-08-03 10:16:00,10:16:04,10:16:51,30968,31097,16225.0,46,16230.0,5,16230.0,16240.0,16230.0,16240.0,195,75,16235,27,16240,26
2016-08-03 10:17:00,10:17:00,10:17:50,31109,31191,16235.0,31,16240.0,26,16235.0,16240.0,16235.0,16240.0,35,23,16235,37,16240,13
2016-08-03 10:18:00,10:18:18,10:18:32,31215,31281,16235.0,34,16240.0,17,16235.0,16235.0,16235.0,16235.0,64,-28,16235,1,16240,19
2016-08-03 10:19:00,10:19:33,10:19:49,31304,31313,16235.0,23,16240.0,18,16235.0,16235.0,16235.0,16235.0,3,-3,16235,28,16240,16
2016-08-03 10:20:00,10:20:07,10:20:20,31324,31367,16235.0,35,16240.0,17,16240.0,16240.0,16235.0,16235.0,40,-20,16230,17,16235,18
2016-08-03 10:21:00,10:21:00,10:21:59,31381,31473,16230.0,21,16235.0,19,16230.0,16230.0,16220.0,16225.0,75,-31,16225,4,16230,63
2016-08-03 10:22:00,10:22:08,10:22:36,31479,31528,16225.0,9,16230.0,10,16225.0,16225.0,16220.0,16225.0,107,-1,16220,7,16225,1
2016-08-03 10:23:00,10:23:24,10:23:59,31545,31590,16220.0,18,16225.0,4,16220.0,16225.0,16215.0,16215.0,35,-13,16215,1,16220,10
2016-08-03 10:24:00,10:24:11,10:24:55,31604,31675,16215.0,12,16220.0,14,16215.0,16220.0,16215.0,16220.0,55,15,16215,24,16220,46
2016-08-03 10:25:00,10:25:00,10:25:53,31679,31714,16215.0,23,16220.0,46,16215.0,16225.0,16215.0,16225.0,60,58,16220,25,16225,11
2016-08-03 10:26:00,10:26:11,10:26:56,31721,31833,16220.0,24,16225.0,11,16220.0,16220.0,16210.0,16215.0,89,-64,16210,22,16220,23
2016-08-03 10:27:00,10:27:13,10:27:55,31842,31917,16215.0,12,16220.0,15,16215.0,16220.0,16215.0,16220.0,108,-63,16220,6,16225,18
2016-08-03 10:28:00,10:28:42,10:28:59,31944,31950,16220.0,9,16225.0,30,16220.0,16225.0,16220.0,16225.0,2,0,16220,15,16225,29
2016-08-03 10:29:00,10:29:18,10:29:59,31963,32050,16220.0,24,16225.0,32,16225.0,16235.0,16220.0,16230.0,72,39,16230,4,16235,54
2016-08-03 10:30:00,10:30:04,10:30:21,32054,32076,16230.0,7,16235.0,64,16230.0,16235.0,16225.0,16235.0,23,-15,16230,6,16235,53
2016-08-03 10:31:00,10:31:03,10:31:38,32084,32144,16230.0,10,16235.0,53,16230.0,16240.0,16230.0,16235.0,89,71,16235,8,16240,53
2016-08-03 10:32:00,10:32:06,10:32:56,32154,32194,16235.0,23,16240.0,53,16235.0,16235.0,16230.0,16235.0,48,2,16235,10,16235,4
2016-08-03 10:33:00,10:33:05,10:33:59,32197,32213,16235.0,8,16240.0,55,16235.0,16235.0,16235.0,16235.0,10,-6,16230,14,16235,3
2016-08-03 10:34:00,10:34:02,10:34:59,32216,32246,16230.0,14,16235.0,3,16235.0,16235.0,16230.0,16230.0,25,1,16230,2,16235,10
2016-08-03 10:35:00,10:35:02,10:35:59,32249,32302,16230.0,2,16235.0,10,16230.0,16230.0,16220.0,16220.0,49,-49,16215,17,16220,4
2016-08-03 10:36:00,10:36:00,10:36:48,32304,32398,16215.0,17,16225.0,16,16220.0,16225.0,16205.0,16205.0,95,-58,16205,6,16210,14
2016-08-03 10:37:00,10:37:02,10:37:44,32409,32487,16205.0,13,16210.0,13,16205.0,16205.0,16200.0,16205.0,77,9,16205,23,16210,14
2016-08-03 10:38:00,10:38:38,10:38:57,32507,32536,16205.0,24,16210.0,7,16210.0,16210.0,16210.0,16210.0,44,22,16210,17,16215,12
2016-08-03 10:39:00,10:39:17,10:39:56,32548,32573,16210.0,20,16215.0,10,16210.0,16210.0,16205.0,16205.0,36,-36,16205,9,16210,9
2016-08-03 10:40:00,10:40:13,10:40:51,32582,32621,16205.0,11,16210.0,21,16205.0,16205.0,16200.0,16200.0,46,-46,16200,7,16205,27
2016-08-03 10:41:00,10:41:14,10:41:58,32627,32673,16200.0,10,16205.0,27,16200.0,16200.0,16195.0,16200.0,78,17,16200,4,16205,16
2016-08-03 10:42:00,10:42:04,10:42:04,32677,32677,16200.0,3,16205.0,14,16200.0,16200.0,16200.0,16200.0,1,-1,16200,2,16205,16
2016-08-03 10:43:00,10:43:00,10:43:00,0,0,0.0,0,0.0,0,16200.0,16200.0,16200.0,16200.0,0,0,0,0,0,0
2016-08-03 10:44:00,10:44:27,10:44:54,32699,32715,16200.0,14,16205.0,11,16205.0,16210.0,16205.0,16210.0,15,11,16205,8,16210,13
2016-08-03 10:45:00,10:45:07,10:45:12,32719,32727,16205.0,5,16210.0,13,16205.0,16205.0,16205.0,16205.0,6,-2,16200,10,16205,3
2016-08-03 10:46:00,10:46:01,10:46:47,32736,32766,16200.0,13,16205.0,6,16205.0,16205.0,16205.0,16205.0,19,-3,16205,1,16210,13
2016-08-03 10:47:00,10:47:20,10:47:27,32769,32779,16200.0,16,16205.0,7,16205.0,16205.0,16205.0,16205.0,11,3,16200,12,16205,11
2016-08-03 10:48:00,10:48:16,10:48:16,32790,32790,16200.0,15,16205.0,4,16205.0,16205.0,16205.0,16205.0,1,1,16200,14,16205,3
2016-08-03 10:49:00,10:49:00,10:49:00,0,0,0.0,0,0.0,0,16205.0,16205.0,16205.0,16205.0,0,0,0,0,0,0
2016-08-03 10:50:00,10:50:24,10:50:25,32818,32820,16200.0,12,16205.0,16,16205.0,16205.0,16205.0,16205.0,2,2,16200,11,16205,14
2016-08-03 10:51:00,10:51:21,10:51:47,32831,32843,16200.0,15,16205.0,21,16200.0,16205.0,16200.0,16205.0,6,2,16200,20,16205,21
2016-08-03 10:52:00,10:52:18,10:52:50,32851,32928,16200.0,13,16205.0,24,16200.0,16200.0,16190.0,16200.0,67,10,16200,2,16205,9
2016-08-03 10:53:00,10:53:04,10:53:36,32936,32987,16200.0,4,16205.0,20,16200.0,16205.0,16200.0,16205.0,56,16,16200,6,16205,13
2016-08-03 10:54:00,10:54:16,10:54:41,32997,33015,16200.0,12,16205.0,9,16205.0,16205.0,16205.0,16205.0,14,10,16205,2,16210,16
2016-08-03 10:55:00,10:55:04,10:55:04,33020,33025,16205.0,5,16210.0,16,16205.0,16205.0,16205.0,16205.0,16,-16,16205,2,16210,17
2016-08-03 10:56:00,10:56:00,10:56:00,0,0,0.0,0,0.0,0,16205.0,16205.0,16205.0,16205.0,0,0,0,0,0,0
2016-08-03 10:57:00,10:57:03,10:57:03,33040,33041,16200.0,19,16205.0,10,16205.0,16205.0,16205.0,16205.0,2,2,16200,17,16205,8
2016-08-03 10:58:00,10:58:09,10:58:19,33052,33088,16200.0,21,16205.0,7,16205.0,16215.0,16205.0,16210.0,67,67,16205,4,16210,7
2016-08-03 10:59:00,10:59:49,10:59:49,33099,33104,16205.0,13,16210.0,12,16205.0,16205.0,16205.0,16205.0,11,-11,16200,16,16205,10
2016-08-03 11:00:00,11:00:23,11:00:55,33114,33134,16200.0,18,16205.0,11,16200.0,16200.0,16200.0,16200.0,20,-20,16200,7,16205,13
2016-08-03 11:01:00,11:01:02,11:01:55,33142,33160,16200.0,16,16205.0,13,16205.0,16205.0,16200.0,16205.0,5,-1,16200,33,16205,12
2016-08-03 11:02:00,11:02:05,11:02:49,33166,33204,16200.0,35,16205.0,11,16205.0,16210.0,16205.0,16205.0,23,15,16200,30,16205,1
2016-08-03 11:03:00,11:03:19,11:03:50,33210,33219,16200.0,31,16205.0,1,16205.0,16205.0,16205.0,16205.0,4,4,16200,34,16205,8
2016-08-03 11:04:00,11:04:11,11:04:24,33225,33240,16200.0,34,16205.0,3,16205.0,16205.0,16205.0,16205.0,11,5,16205,1,16210,20
2016-08-03 11:05:00,11:05:14,11:05:31,33261,33273,16200.0,33,16205.0,5,16205.0,16205.0,16205.0,16205.0,7,1,16200,32,16205,2
2016-08-03 11:06:00,11:06:18,11:06:52,33281,33311,16200.0,33,16205.0,2,16200.0,16205.0,16200.0,16205.0,32,-17,16205,3,16205,6
2016-08-03 11:07:00,11:07:03,11:07:17,33315,33319,16205.0,1,16210.0,16,16205.0,16205.0,16205.0,16205.0,5,-5,16200,30,16205,6
2016-08-03 11:08:00,11:08:22,11:08:57,33327,33358,16200.0,32,16205.0,11,16200.0,16210.0,16200.0,16205.0,36,16,16200,32,16210,12
2016-08-03 11:09:00,11:09:19,11:09:45,33371,33375,16205.0,6,16210.0,26,16205.0,16205.0,16205.0,16205.0,2,-2,16205,7,16210,27
2016-08-03 11:10:00,11:10:39,11:10:39,33381,33381,16205.0,10,16210.0,26,16205.0,16205.0,16205.0,16205.0,1,-1,16205,8,16210,27
2016-08-03 11:11:00,11:11:09,11:11:09,33385,33393,16205.0,9,16210.0,27,16205.0,16205.0,16205.0,16205.0,12,-12,16200,32,16205,24
2016-08-03 11:12:00,11:12:19,11:12:23,33406,33435,16200.0,8,16205.0,31,16200.0,16200.0,16195.0,16200.0,40,-15,16195,9,16200,3
2016-08-03 11:13:00,11:13:39,11:13:49,33447,33463,16195.0,11,16200.0,7,16200.0,16205.0,16200.0,16205.0,6,6,16200,11,16205,29
2016-08-03 11:14:00,11:14:10,11:14:57,33472,33481,16200.0,18,16205.0,28,16200.0,16205.0,16200.0,16205.0,2,0,16200,11,16205,31
2016-08-03 11:15:00,11:15:00,11:15:00,0,0,0.0,0,0.0,0,16205.0,16205.0,16205.0,16205.0,0,0,0,0,0,0
2016-08-03 11:16:00,11:16:24,11:16:57,33498,33539,16200.0,14,16205.0,31,16200.0,16200.0,16195.0,16195.0,49,-49,16195,12,16200,28
2016-08-03 11:17:00,11:17:00,11:17:00,0,0,0.0,0,0.0,0,16195.0,16195.0,16195.0,16195.0,0,0,0,0,0,0
2016-08-03 11:18:00,11:18:10,11:18:32,33552,33567,16195.0,9,16200.0,28,16195.0,16195.0,16195.0,16195.0,14,-14,16195,7,16200,26
2016-08-03 11:19:00,11:19:12,11:19:59,33581,33651,16195.0,12,16200.0,11,16195.0,16195.0,16190.0,16195.0,102,-44,16195,12,16200,15
2016-08-03 11:20:00,11:20:07,11:20:14,33658,33679,16195.0,12,16200.0,14,16195.0,16195.0,16195.0,16195.0,27,3,16195,1,16200,16
2016-08-03 11:21:00,11:21:00,11:21:00,0,0,0.0,0,0.0,0,16195.0,16195.0,16195.0,16195.0,0,0,0,0,0,0
2016-08-03 11:22:00,11:22:01,11:22:56,33699,33756,16195.0,22,16200.0,11,16200.0,16200.0,16195.0,16195.0,107,83,16195,21,16200,10
2016-08-03 11:23:00,11:23:14,11:23:19,33760,33782,16195.0,21,16200.0,8,16200.0,16200.0,16200.0,16200.0,39,36,16200,2,16205,34
2016-08-03 11:24:00,11:24:10,11:24:38,33803,33829,16200.0,9,16205.0,30,16205.0,16205.0,16200.0,16200.0,72,44,16200,11,16205,13
2016-08-03 11:25:00,11:25:05,11:25:37,33831,33876,16200.0,11,16205.0,15,16200.0,16205.0,16200.0,16205.0,39,12,16200,44,16205,48
2016-08-03 11:26:00,11:26:16,11:26:16,33883,33887,16200.0,51,16205.0,56,16200.0,16200.0,16200.0,16200.0,10,-10,16200,44,16205,54
2016-08-03 11:27:00,11:27:40,11:27:40,33899,33899,16200.0,43,16205.0,57,16205.0,16205.0,16205.0,16205.0,5,5,16200,45,16205,52
2016-08-03 11:28:00,11:28:58,11:28:58,33911,33911,16200.0,53,16205.0,46,16205.0,16205.0,16205.0,16205.0,1,1,16200,51,16205,45
2016-08-03 11:29:00,11:29:17,11:29:45,33917,33948,16200.0,51,16205.0,47,16205.0,16205.0,16205.0,16205.0,59,31,16200,48,16210,19
2016-08-03 11:30:00,11:30:00,11:30:57,33954,34109,16205.0,7,16210.0,19,16210.0,16220.0,16205.0,16215.0,155,11,16215,1,16215,3
2016-08-03 11:31:00,11:31:00,11:31:59,34113,34249,16215.0,1,16220.0,88,16215.0,16215.0,16210.0,16210.0,80,0,16205,37,16210,15
2016-08-03 11:32:00,11:32:05,11:32:53,34252,34358,16205.0,39,16210.0,17,16205.0,16205.0,16195.0,16200.0,109,-109,16200,4,16210,26
2016-08-03 11:33:00,11:33:02,11:33:26,34369,34390,16200.0,7,16205.0,36,16200.0,16205.0,16200.0,16205.0,42,10,16200,17,16210,28
2016-08-03 11:34:00,11:34:09,11:34:55,34403,34449,16205.0,12,16210.0,28,16205.0,16205.0,16205.0,16205.0,72,12,16200,20,16205,30
2016-08-03 11:35:00,11:35:00,11:35:53,34451,34590,16200.0,30,16205.0,30,16205.0,16205.0,16195.0,16205.0,114,10,16200,26,16210,41
2016-08-03 11:36:00,11:36:01,11:36:51,34598,34677,16205.0,14,16210.0,41,16205.0,16205.0,16200.0,16200.0,65,-45,16200,20,16205,35
2016-08-03 11:37:00,11:37:01,11:37:59,34682,34773,16200.0,18,16205.0,37,16200.0,16205.0,16200.0,16205.0,130,-10,16200,24,16210,43
2016-08-03 11:38:00,11:38:01,11:38:52,34777,34825,16200.0,27,16210.0,43,16200.0,16205.0,16200.0,16200.0,21,-21,16200,18,16205,48
2016-08-03 11:39:00,11:39:02,11:39:52,34838,34888,16200.0,23,16205.0,50,16200.0,16205.0,16200.0,16200.0,72,26,16200,24,16205,2
2016-08-03 11:40:00,11:40:02,11:40:52,34898,34957,16200.0,15,16205.0,57,16200.0,16205.0,16200.0,16200.0,108,34,16200,40,16205,6
2016-08-03 11:41:00,11:41:01,11:41:55,34965,35038,16205.0,4,16210.0,43,16205.0,16205.0,16200.0,16200.0,47,-39,16200,5,16205,21
2016-08-03 11:42:00,11:42:02,11:42:52,35044,35090,16200.0,15,16205.0,23,16200.0,16200.0,16195.0,16195.0,39,-29,16195,40,16200,26
2016-08-03 11:43:00,11:43:02,11:43:55,35098,35346,16195.0,41,16200.0,26,16195.0,16195.0,16165.0,16165.0,351,-208,16160,15,16170,22
2016-08-03 11:44:00,11:44:02,11:44:59,35354,35487,16160.0,13,16165.0,11,16160.0,16160.0,16145.0,16145.0,136,-72,16140,39,16145,5
2016-08-03 11:45:00,11:45:02,11:45:58,35496,35743,16140.0,31,16145.0,11,16140.0,16155.0,16135.0,16140.0,339,-49,16140,34,16150,30
2016-08-03 11:46:00,11:46:00,11:46:59,35750,35956,16140.0,19,16145.0,24,16140.0,16140.0,16125.0,16130.0,290,-46,16125,20,16130,14
2016-08-03 11:47:00,11:47:00,11:47:59,35959,36196,16125.0,20,16130.0,14,16125.0,16130.0,16110.0,16110.0,305,-113,16110,7,16120,16
2016-08-03 11:48:00,11:48:00,11:48:58,36198,36537,16110.0,7,16115.0,24,16115.0,16130.0,16105.0,16130.0,549,67,16130,6,16135,20
2016-08-03 11:49:00,11:49:00,11:49:59,36541,36688,16130.0,6,16135.0,14,16130.0,16135.0,16125.0,16125.0,144,-3,16125,7,16130,28
2016-08-03 11:50:00,11:50:00,11:50:53,36691,36838,16125.0,7,16130.0,28,16125.0,16130.0,16120.0,16125.0,179,5,16125,56,16130,44
2016-08-03 11:51:00,11:51:03,11:51:57,36841,36957,16125.0,56,16130.0,44,16125.0,16125.0,16115.0,16125.0,146,-80,16125,7,16125,3
2016-08-03 11:52:00,11:52:00,11:52:53,36961,37088,16120.0,151,16125.0,3,16120.0,16125.0,16110.0,16120.0,303,-113,16120,22,16125,22
2016-08-03 11:53:00,11:53:03,11:53:59,37099,37322,16120.0,6,16125.0,29,16120.0,16120.0,16115.0,16120.0,412,19,16120,7,16125,6
2016-08-03 11:54:00,11:54:00,11:54:58,37325,37487,16120.0,7,16125.0,6,16120.0,16120.0,16105.0,16115.0,170,-91,16110,19,16115,1
2016-08-03 11:55:00,11:55:04,11:55:56,37491,37601,16110.0,23,16115.0,6,16110.0,16110.0,16095.0,16100.0,124,-115,16100,1,16105,37
2016-08-03 11:56:00,11:56:04,11:56:52,37608,37788,16100.0,15,16105.0,37,16105.0,16110.0,16100.0,16110.0,276,62,16105,33,16110,7
2016-08-03 11:57:00,11:57:00,11:57:42,37797,37835,16105.0,28,16110.0,31,16105.0,16110.0,16100.0,16110.0,98,32,16105,36,16110,7
2016-08-03 11:58:00,11:58:00,11:58:55,37858,37917,16105.0,13,16110.0,11,16110.0,16115.0,16110.0,16115.0,100,68,16115,2,16120,34
2016-08-03 11:59:00,11:59:01,11:59:46,37924,38001,16115.0,6,16120.0,36,16115.0,16115.0,16110.0,16110.0,58,-20,16105,20,16110,6
2016-08-03 12:00:00,12:00:00,12:00:45,38011,38103,16105.0,22,16110.0,25,16110.0,16110.0,16105.0,16110.0,122,-30,16105,15,16115,27
2016-08-03 12:01:00,12:01:18,12:01:32,38121,38161,16105.0,8,16110.0,15,16105.0,16105.0,16095.0,16100.0,45,-28,16100,7,16105,12
2016-08-03 12:02:00,12:02:14,12:02:57,38181,38272,16100.0,17,16105.0,16,16105.0,16115.0,16105.0,16110.0,64,15,16110,7,16115,27
2016-08-03 12:03:00,12:03:11,12:03:31,38286,38313,16110.0,17,16115.0,25,16115.0,16115.0,16115.0,16115.0,29,25,16110,19,16120,34
2016-08-03 12:04:00,12:04:22,12:04:54,38341,38405,16115.0,21,16120.0,44,16115.0,16120.0,16115.0,16120.0,88,49,16115,19,16120,6
2016-08-03 12:05:00,12:05:03,12:05:59,38412,38469,16115.0,17,16120.0,18,16115.0,16115.0,16110.0,16115.0,51,-9,16110,21,16115,15
2016-08-03 12:06:00,12:06:02,12:06:56,38473,38517,16110.0,22,16115.0,15,16115.0,16120.0,16115.0,16120.0,37,37,16120,2,16125,55
2016-08-03 12:07:00,12:07:28,12:07:43,38525,38565,16120.0,8,16125.0,58,16120.0,16120.0,16120.0,16120.0,44,29,16115,14,16125,59
2016-08-03 12:08:00,12:08:14,12:08:43,38577,38592,16115.0,19,16120.0,9,16120.0,16120.0,16120.0,16120.0,20,20,16115,25,16120,10
2016-08-03 12:09:00,12:09:18,12:09:56,38604,38683,16115.0,26,16120.0,13,16120.0,16120.0,16115.0,16115.0,80,22,16110,18,16115,7
2016-08-03 12:10:00,12:10:00,12:10:00,0,0,0.0,0,0.0,0,16115.0,16115.0,16115.0,16115.0,0,0,0,0,0,0
2016-08-03 12:11:00,12:11:30,12:11:48,38746,38764,16110.0,26,16115.0,24,16110.0,16115.0,16110.0,16115.0,6,-4,16110,25,16115,19
2016-08-03 12:12:00,12:12:24,12:12:46,38771,38782,16110.0,26,16115.0,20,16110.0,16115.0,16110.0,16115.0,3,-1,16110,28,16115,19
2016-08-03 12:13:00,12:13:19,12:13:43,38789,38839,16110.0,29,16115.0,15,16115.0,16120.0,16115.0,16120.0,46,46,16115,27,16120,17
2016-08-03 12:14:00,12:14:00,12:14:50,38853,38910,16115.0,29,16120.0,24,16115.0,16115.0,16105.0,16105.0,74,-74,16105,36,16110,42
2016-08-03 12:15:00,12:15:16,12:15:16,38928,38929,16105.0,39,16110.0,44,16105.0,16105.0,16105.0,16105.0,2,-2,16105,38,16110,49
2016-08-03 12:16:00,12:16:09,12:16:40,38940,38947,16105.0,59,16110.0,62,16105.0,16110.0,16105.0,16110.0,4,-2,16105,56,16110,61
2016-08-03 12:17:00,12:17:25,12:17:43,38955,39022,16105.0,52,16110.0,62,16105.0,16105.0,16100.0,16105.0,126,-58,16105,15,16110,45
2016-08-03 12:18:00,12:18:06,12:18:13,39033,39085,16105.0,28,16110.0,46,16110.0,16110.0,16110.0,16110.0,83,63,16110,13,16115,8
2016-08-03 12:19:00,12:19:02,12:19:18,39116,39132,16110.0,25,16115.0,15,16115.0,16120.0,16115.0,16120.0,16,16,16115,17,16120,10
2016-08-03 12:20:00,12:20:03,12:20:46,39154,39206,16115.0,18,16120.0,19,16115.0,16115.0,16115.0,16115.0,39,1,16110,20,16115,15
2016-08-03 12:21:00,12:21:05,12:21:07,39213,39222,16110.0,19,16115.0,12,16115.0,16115.0,16115.0,16115.0,11,9,16110,18,16115,1
2016-08-03 12:22:00,12:22:02,12:22:19,39241,39266,16110.0,21,16115.0,10,16115.0,16115.0,16115.0,16115.0,12,0,16115,15,16120,22
2016-08-03 12:23:00,12:23:17,12:23:57,39286,39370,16115.0,17,16120.0,41,16120.0,16120.0,16105.0,16115.0,71,-41,16110,22,16115,7
2016-08-03 12:24:00,12:24:00,12:24:53,39375,39448,16110.0,23,16115.0,2,16115.0,16115.0,16110.0,16110.0,48,-32,16105,17,16110,54
2016-08-03 12:25:00,12:25:02,12:25:51,39456,39500,16105.0,19,16110.0,64,16110.0,16110.0,16105.0,16105.0,54,-18,16100,20,16105,5
2016-08-03 12:26:00,12:26:07,12:26:30,39510,39562,16100.0,18,16105.0,12,16100.0,16100.0,16095.0,16095.0,39,-37,16095,34,16100,14
2016-08-03 12:27:00,12:27:05,12:27:49,39572,39802,16095.0,29,16100.0,19,16095.0,16095.0,16060.0,16070.0,524,-504,16065,17,16075,27
2016-08-03 12:28:00,12:28:00,12:28:58,39814,40007,16065.0,17,16070.0,15,16070.0,16080.0,16065.0,16070.0,299,-25,16065,15,16070,2
2016-08-03 12:29:00,12:29:16,12:29:54,40022,40102,16065.0,12,16070.0,13,16065.0,16070.0,16065.0,16065.0,95,-53,16060,30,16070,27
2016-08-03 12:30:00,12:30:04,12:30:59,40116,40403,16065.0,14,16070.0,25,16065.0,16065.0,16045.0,16055.0,527,-269,16050,49,16055,20
2016-08-03 12:31:00,12:31:00,12:31:50,40404,40539,16055.0,7,16060.0,50,16055.0,16060.0,16045.0,16045.0,193,-129,16045,38,16055,121
2016-08-03 12:32:00,12:32:07,12:32:50,40552,40622,16050.0,40,16055.0,131,16050.0,16055.0,16050.0,16055.0,187,77,16055,5,16060,37
2016-08-03 12:33:00,12:33:02,12:33:44,40630,40818,16055.0,11,16060.0,57,16060.0,16070.0,16060.0,16060.0,321,99,16055,31,16060,4
2016-08-03 12:34:00,12:34:00,12:34:17,40830,40875,16055.0,34,16060.0,9,16060.0,16060.0,16060.0,16060.0,48,10,16055,30,16060,8
2016-08-03 12:35:00,12:35:14,12:35:58,40898,41074,16055.0,35,16060.0,47,16060.0,16060.0,16040.0,16045.0,326,-102,16040,49,16045,8
2016-08-03 12:36:00,12:36:00,12:36:50,41079,41162,16040.0,51,16045.0,20,16040.0,16050.0,16040.0,16040.0,63,-17,16040,31,16045,72
2016-08-03 12:37:00,12:37:00,12:37:51,41164,41324,16040.0,31,16045.0,71,16040.0,16055.0,16040.0,16045.0,263,-24,16040,17,16045,48
2016-08-03 12:38:00,12:38:00,12:38:58,41334,41576,16040.0,17,16045.0,51,16040.0,16050.0,16030.0,16035.0,390,-26,16030,67,16035,12
2016-08-03 12:39:00,12:39:00,12:39:59,41581,41853,16030.0,67,16035.0,33,16030.0,16045.0,16025.0,16035.0,558,-75,16035,8,16040,31
2016-08-03 12:40:00,12:40:00,12:40:51,41856,41956,16035.0,8,16040.0,31,16035.0,16035.0,16030.0,16030.0,62,-21,16030,31,16035,17
2016-08-03 12:41:00,12:41:01,12:41:51,41963,42056,16030.0,35,16035.0,18,16030.0,16035.0,16030.0,16030.0,83,35,16030,27,16035,9
2016-08-03 12:42:00,12:42:01,12:42:59,42062,42214,16030.0,29,16035.0,5,16030.0,16055.0,16030.0,16050.0,145,41,16050,14,16055,15
2016-08-03 12:43:00,12:43:01,12:43:51,42222,42365,16050.0,20,16055.0,15,16050.0,16065.0,16050.0,16065.0,123,61,16065,12,16070,23
2016-08-03 12:44:00,12:44:01,12:44:54,42376,42484,16065.0,15,16070.0,21,16065.0,16075.0,16065.0,16075.0,66,38,16070,14,16075,27
2016-08-03 12:45:00,12:45:01,12:45:57,42496,42627,16070.0,16,16075.0,31,16070.0,16075.0,16065.0,16070.0,144,54,16070,15,16075,21
2016-08-03 12:46:00,12:46:01,12:46:59,42637,42808,16070.0,19,16075.0,28,16075.0,16080.0,16075.0,16080.0,159,36,16075,24,16080,14
2016-08-03 12:47:00,12:47:02,12:47:52,42814,42957,16075.0,26,16080.0,14,16075.0,16090.0,16075.0,16080.0,244,115,16080,17,16085,14
2016-08-03 12:48:00,12:48:02,12:48:58,42969,43148,16080.0,21,16085.0,15,16080.0,16090.0,16075.0,16080.0,221,27,16075,30,16080,4
2016-08-03 12:49:00,12:49:01,12:49:52,43156,43260,16075.0,10,16080.0,17,16075.0,16085.0,16075.0,16075.0,105,13,16075,8,16080,24
2016-08-03 12:50:00,12:50:02,12:50:52,43266,43384,16075.0,14,16080.0,26,16075.0,16080.0,16070.0,16075.0,103,41,16075,10,16080,27
2016-08-03 12:51:00,12:51:02,12:51:58,43390,43482,16075.0,10,16080.0,27,16075.0,16085.0,16075.0,16085.0,62,34,16080,23,16085,12
2016-08-03 12:52:00,12:52:03,12:52:59,43485,43576,16080.0,23,16085.0,12,16080.0,16080.0,16075.0,16080.0,79,-15,16080,18,16085,21
2016-08-03 12:53:00,12:53:03,12:53:53,43584,43650,16080.0,19,16085.0,24,16080.0,16080.0,16075.0,16075.0,41,-39,16075,3,16085,31
2016-08-03 12:54:00,12:54:01,12:54:54,43655,43775,16075.0,5,16080.0,55,16080.0,16085.0,16075.0,16085.0,135,43,16080,30,16085,17
2016-08-03 12:55:00,12:55:03,12:55:54,43777,43948,16080.0,32,16085.0,17,16080.0,16100.0,16080.0,16100.0,216,110,16100,4,16105,26
2016-08-03 12:56:00,12:56:01,12:56:58,43960,44209,16100.0,25,16105.0,16,16105.0,16125.0,16105.0,16115.0,453,324,16110,25,16115,26
2016-08-03 12:57:00,12:57:11,12:57:44,44228,44252,16110.0,22,16115.0,21,16115.0,16115.0,16110.0,16110.0,14,6,16110,22,16115,23
2016-08-03 12:58:00,12:58:00,12:58:45,44257,44343,16110.0,24,16115.0,23,16115.0,16115.0,16115.0,16115.0,83,-3,16115,59,16120,39
2016-08-03 12:59:00,12:59:15,12:59:57,44363,44484,16115.0,58,16120.0,45,16115.0,16115.0,16105.0,16105.0,226,-86,16100,39,16105,14
2016-08-03 13:00:00,13:00:02,13:00:57,44490,44635,16100.0,41,16105.0,14,16105.0,16120.0,16105.0,16120.0,195,143,16115,14,16120,18
2016-08-03 13:01:00,13:01:00,13:01:40,44638,44755,16115.0,14,16120.0,18,16120.0,16120.0,16105.0,16105.0,131,-53,16105,13,16110,18
2016-08-03 13:02:00,13:02:01,13:02:59,44774,44819,16105.0,29,16110.0,15,16110.0,16115.0,16110.0,16115.0,37,27,16105,17,16115,69
2016-08-03 13:03:00,13:03:05,13:03:57,44821,44908,16110.0,17,16115.0,69,16110.0,16110.0,16100.0,16100.0,70,-62,16095,25,16100,25
2016-08-03 13:04:00,13:04:00,13:04:54,44913,45034,16095.0,25,16100.0,28,16100.0,16110.0,16095.0,16110.0,121,-15,16105,13,16110,16
2016-08-03 13:05:00,13:05:05,13:05:56,45045,45093,16105.0,23,16110.0,9,16110.0,16115.0,16110.0,16110.0,45,9,16105,15,16110,20
2016-08-03 13:06:00,13:06:02,13:06:55,45104,45186,16105.0,20,16110.0,18,16110.0,16110.0,16105.0,16105.0,90,-30,16100,11,16105,21
2016-08-03 13:07:00,13:07:01,13:07:50,45190,45318,16100.0,11,16105.0,22,16100.0,16100.0,16095.0,16100.0,166,34,16095,23,16105,20
2016-08-03 13:08:00,13:08:31,13:08:54,45351,45435,16095.0,22,16100.0,77,16095.0,16095.0,16090.0,16095.0,103,3,16095,22,16100,71
2016-08-03 13:09:00,13:09:01,13:09:31,45450,45518,16095.0,19,16100.0,75,16095.0,16100.0,16095.0,16095.0,116,63,16095,29,16100,19
2016-08-03 13:10:00,13:10:08,13:10:57,45546,45613,16095.0,38,16100.0,23,16095.0,16105.0,16095.0,16105.0,78,72,16105,20,16110,26
2016-08-03 13:11:00,13:11:00,13:11:59,45621,45780,16105.0,34,16110.0,25,16110.0,16115.0,16100.0,16110.0,186,-78,16105,28,16110,9
2016-08-03 13:12:00,13:12:00,13:12:46,45783,45858,16105.0,28,16110.0,9,16110.0,16115.0,16105.0,16105.0,66,-30,16105,20,16110,34
2016-08-03 13:13:00,13:13:15,13:13:58,45881,45907,16100.0,21,16105.0,8,16100.0,16105.0,16100.0,16105.0,8,-6,16100,15,16105,19
2016-08-03 13:14:00,13:14:00,13:14:36,45913,45982,16100.0,23,16105.0,10,16105.0,16110.0,16105.0,16110.0,79,7,16105,16,16110,17
2016-08-03 13:15:00,13:15:00,13:15:58,45987,46026,16105.0,16,16110.0,17,16110.0,16110.0,16110.0,16110.0,3,3,16105,29,16110,6
2016-08-03 13:16:00,13:16:13,13:16:51,46036,46137,16105.0,30,16110.0,16,16110.0,16115.0,16105.0,16105.0,106,12,16105,12,16110,19
2016-08-03 13:17:00,13:17:26,13:17:47,46158,46192,16105.0,18,16110.0,33,16105.0,16105.0,16105.0,16105.0,39,-39,16105,7,16110,37
2016-08-03 13:18:00,13:18:05,13:18:59,46198,46324,16105.0,11,16110.0,38,16105.0,16105.0,16090.0,16095.0,102,-39,16095,11,16100,27
2016-08-03 13:19:00,13:19:04,13:19:53,46328,46441,16095.0,12,16100.0,27,16095.0,16105.0,16095.0,16105.0,86,-24,16100,16,16105,15
2016-08-03 13:20:00,13:20:08,13:20:59,46456,46585,16100.0,15,16105.0,28,16100.0,16100.0,16085.0,16090.0,128,-73,16085,23,16095,19
2016-08-03 13:21:00,13:21:09,13:21:53,46599,46711,16090.0,24,16095.0,11,16095.0,16100.0,16095.0,16095.0,80,58,16095,8,16100,21
2016-08-03 13:22:00,13:22:11,13:22:58,46727,46771,16095.0,23,16100.0,12,16095.0,16100.0,16095.0,16095.0,15,-11,16095,17,16100,31
2016-08-03 13:23:00,13:23:11,13:23:50,46779,46861,16095.0,15,16100.0,35,16095.0,16095.0,16090.0,16090.0,55,-41,16090,5,16095,30
2016-08-03 13:24:00,13:24:03,13:24:51,46878,47005,16090.0,24,16095.0,29,16090.0,16105.0,16090.0,16105.0,164,64,16100,25,16105,15
2016-08-03 13:25:00,13:25:18,13:25:58,47031,47130,16100.0,36,16105.0,15,16100.0,16120.0,16100.0,16115.0,87,55,16110,28,16115,3
2016-08-03 13:26:00,13:26:00,13:26:47,47140,47297,16110.0,29,16115.0,7,16115.0,16125.0,16115.0,16125.0,131,85,16120,17,16125,17
2016-08-03 13:27:00,13:27:02,13:27:50,47322,47493,16120.0,29,16125.0,33,16125.0,16125.0,16115.0,16115.0,160,-2,16115,8,16120,18
2016-08-03 13:28:00,13:28:07,13:28:50,47506,47663,16115.0,11,16120.0,21,16115.0,16125.0,16115.0,16120.0,159,47,16120,22,16125,31
2016-08-03 13:29:00,13:29:06,13:29:58,47675,47869,16120.0,23,16125.0,35,16120.0,16130.0,16115.0,16120.0,270,44,16120,39,16125,17
2016-08-03 13:30:00,13:30:01,13:30:59,47874,47953,16120.0,41,16125.0,19,16125.0,16125.0,16120.0,16120.0,45,1,16120,15,16125,36
2016-08-03 13:31:00,13:31:03,13:31:57,47956,48134,16120.0,15,16125.0,36,16120.0,16120.0,16105.0,16110.0,195,-69,16110,27,16115,15
2016-08-03 13:32:00,13:32:13,13:32:51,48152,48202,16110.0,19,16115.0,19,16115.0,16120.0,16115.0,16115.0,40,6,16115,12,16120,28
2016-08-03 13:33:00,13:33:03,13:33:56,48208,48290,16115.0,12,16120.0,30,16115.0,16120.0,16105.0,16105.0,74,-28,16105,14,16110,25
2016-08-03 13:34:00,13:34:09,13:34:55,48312,48414,16105.0,35,16110.0,23,16105.0,16110.0,16105.0,16105.0,104,-18,16105,24,16115,20
2016-08-03 13:35:00,13:35:04,13:35:59,48421,48544,16110.0,2,16115.0,23,16110.0,16120.0,16110.0,16120.0,103,85,16115,17,16120,16
2016-08-03 13:36:00,13:36:09,13:36:55,48554,48713,16115.0,28,16120.0,18,16120.0,16135.0,16120.0,16135.0,264,180,16130,24,16135,14
2016-08-03 13:37:00,13:37:00,13:37:58,48724,48890,16130.0,29,16135.0,23,16135.0,16135.0,16125.0,16135.0,123,41,16130,16,16135,20
2016-08-03 13:38:00,13:38:11,13:38:46,48904,48981,16130.0,18,16135.0,22,16130.0,16135.0,16125.0,16125.0,31,-1,16125,21,16130,18
2016-08-03 13:39:00,13:39:00,13:39:58,48997,49136,16125.0,12,16130.0,29,16125.0,16125.0,16105.0,16110.0,82,-49,16105,21,16110,11
2016-08-03 13:40:00,13:40:03,13:40:40,49146,49235,16105.0,23,16110.0,26,16105.0,16110.0,16105.0,16110.0,59,9,16105,21,16115,19
2016-08-03 13:41:00,13:41:01,13:41:58,49259,49388,16105.0,41,16110.0,11,16105.0,16110.0,16095.0,16095.0,81,-67,16095,37,16100,238
2016-08-03 13:42:00,13:42:02,13:42:59,49396,49518,16095.0,50,16100.0,30,16095.0,16105.0,16095.0,16095.0,125,11,16095,29,16100,48
2016-08-03 13:43:00,13:43:06,13:43:59,49525,49604,16095.0,30,16100.0,49,16095.0,16100.0,16090.0,16095.0,55,-17,16090,34,16095,8
2016-08-03 13:44:00,13:44:03,13:44:55,49613,49823,16090.0,38,16095.0,18,16095.0,16105.0,16090.0,16095.0,285,93,16095,9,16100,19
2016-08-03 13:45:00,13:45:05,13:45:59,49837,49962,16095.0,15,16100.0,22,16100.0,16100.0,16085.0,16085.0,156,-146,16080,27,16085,24
2016-08-03 13:46:00,13:46:04,13:46:50,49972,50169,16080.0,25,16085.0,39,16080.0,16080.0,16075.0,16080.0,172,-60,16075,18,16080,7
2016-08-03 13:47:00,13:47:18,13:47:58,50183,50328,16075.0,22,16080.0,23,16075.0,16075.0,16065.0,16070.0,134,-56,16070,43,16075,19
2016-08-03 13:48:00,13:48:02,13:48:40,50339,50481,16070.0,63,16075.0,10,16070.0,16070.0,16065.0,16065.0,237,-138,16065,12,16070,23
2016-08-03 13:49:00,13:49:00,13:49:57,50497,50586,16065.0,21,16070.0,33,16070.0,16070.0,16065.0,16070.0,99,61,16065,34,16075,35
2016-08-03 13:50:00,13:50:01,13:50:54,50590,50878,16065.0,34,16070.0,7,16070.0,16070.0,16040.0,16045.0,407,-223,16045,7,16050,31
2016-08-03 13:51:00,13:51:02,13:51:59,50894,51034,16045.0,7,16050.0,28,16045.0,16055.0,16045.0,16045.0,203,117,16045,29,16055,17
2016-08-03 13:52:00,13:52:00,13:52:59,51036,51172,16045.0,29,16050.0,19,16050.0,16055.0,16045.0,16045.0,138,48,16045,42,16050,5
2016-08-03 13:53:00,13:53:00,13:53:59,51173,51289,16045.0,48,16050.0,4,16045.0,16055.0,16045.0,16050.0,77,41,16050,20,16055,37
2016-08-03 13:54:00,13:54:00,13:54:59,51292,51459,16050.0,20,16055.0,37,16050.0,16060.0,16050.0,16060.0,261,39,16055,28,16060,17
2016-08-03 13:55:00,13:55:00,13:55:55,51462,51747,16055.0,28,16060.0,17,16055.0,16060.0,16040.0,16055.0,411,-81,16050,8,16055,23
2016-08-03 13:56:00,13:56:00,13:56:55,51756,51932,16050.0,18,16055.0,21,16050.0,16050.0,16040.0,16040.0,244,-168,16035,69,16040,10
2016-08-03 13:57:00,13:57:00,13:57:57,51945,52197,16035.0,72,16040.0,15,16040.0,16050.0,16035.0,16045.0,280,3,16040,51,16045,25
2016-08-03 13:58:00,13:58:00,13:58:57,52201,52420,16040.0,57,16045.0,25,16045.0,16050.0,16035.0,16035.0,264,-131,16035,103,16040,12
2016-08-03 13:59:00,13:59:00,13:59:59,52425,52779,16035.0,103,16040.0,28,16035.0,16055.0,16035.0,16045.0,405,23,16045,40,16055,84
2016-08-03 14:00:00,14:00:00,14:00:59,52781,53251,16045.0,40,16055.0,72,16050.0,16060.0,16045.0,16045.0,967,93,16040,91,16045,8
2016-08-03 14:01:00,14:01:00,14:01:59,53255,53572,16040.0,95,16045.0,8,16040.0,16045.0,16020.0,16025.0,544,-374,16020,50,16025,30
2016-08-03 14:02:00,14:02:01,14:02:59,53579,53849,16020.0,47,16025.0,38,16020.0,16030.0,16020.0,16030.0,316,76,16025,55,16030,1
2016-08-03 14:03:00,14:03:00,14:03:59,53851,54031,16025.0,60,16030.0,1,16030.0,16030.0,16025.0,16025.0,128,-54,16020,53,16025,50
2016-08-03 14:04:00,14:04:01,14:04:59,54035,54172,16020.0,51,16025.0,50,16025.0,16030.0,16020.0,16020.0,158,16,16020,39,16030,56
2016-08-03 14:05:00,14:05:00,14:05:56,54174,54404,16020.0,39,16025.0,69,16025.0,16030.0,16010.0,16015.0,374,-71,16010,153,16015,25
2016-08-03 14:06:00,14:06:07,14:06:51,54417,54712,16010.0,165,16015.0,54,16015.0,16030.0,16010.0,16030.0,527,317,16025,50,16030,24
2016-08-03 14:07:00,14:07:04,14:07:58,54730,54951,16025.0,29,16030.0,46,16025.0,16025.0,16010.0,16015.0,301,-177,16010,115,16015,77
2016-08-03 14:08:00,14:08:01,14:08:55,54958,55398,16010.0,115,16015.0,53,16015.0,16030.0,16015.0,16030.0,1199,905,16025,73,16030,35
2016-08-03 14:09:00,14:09:01,14:09:59,55411,55605,16025.0,58,16030.0,32,16030.0,16030.0,16020.0,16020.0,297,-67,16020,7,16025,37
