,ST,ET,sidx,eidx,bB,bBS,bA,bAS,O,H,L,C,V,OF,eB,eBS,eA,eAS
2016-10-20 08:00:00,08:00:00,08:00:45,1584,1870,16990.0,28,16995.0,22,16990.0,17000.0,16985.0,17000.0,318,86,16995,31,17000,39
2016-10-20 08:01:00,08:01:01,08:01:59,1902,2254,16995.0,29,17000.0,42,16995.0,16995.0,16980.0,16995.0,442,138,16995,21,17000,37
2016-10-20 08:02:00,08:02:00,08:02:56,2257,2541,16995.0,21,17000.0,37,17000.0,17015.0,16995.0,17015.0,378,158,17010,63,17015,16
2016-10-20 08:03:00,08:03:00,08:03:47,2550,2744,17010.0,63,17015.0,21,17015.0,17015.0,17000.0,17000.0,217,-105,17000,29,17005,37
2016-10-20 08:04:00,08:04:37,08:04:54,2807,2918,17000.0,59,17005.0,50,17000.0,17010.0,17000.0,17010.0,206,158,17010,44,17015,46
2016-10-20 08:05:00,08:05:12,08:05:25,2947,3041,17010.0,50,17015.0,73,17010.0,17010.0,17010.0,17010.0,131,-17,17005,53,17010,12
2016-10-20 08:06:00,08:06:01,08:06:35,3082,3301,17005.0,51,17010.0,45,17010.0,17010.0,17010.0,17010.0,316,-226,17005,37,17010,42
2016-10-20 08:07:00,08:07:06,08:07:58,3338,3584,17005.0,51,17010.0,37,17010.0,17015.0,17005.0,17015.0,314,-64,17010,70,17015,20
2016-10-20 08:08:00,08:08:10,08:08:55,3607,3679,17010.0,35,17015.0,54,17015.0,17015.0,17010.0,17010.0,4,2,17010,55,17015,42
2016-10-20 08:09:00,08:09:24,08:09:59,3705,4219,17010.0,57,17015.0,43,17015.0,17040.0,17015.0,17035.0,900,684,17030,48,17035,51
2016-10-20 08:10:00,08:10:05,08:10:51,4235,4536,17030.0,53,17035.0,50,17030.0,17050.0,17030.0,17045.0,430,322,17040,70,17045,67
2016-10-20 08:11:00,08:11:12,08:11:50,4573,4669,17040.0,61,17045.0,80,17045.0,17045.0,17045.0,17045.0,112,112,17040,81,17045,36
2016-10-20 08:12:00,08:12:01,08:12:58,4681,4786,17040.0,79,17045.0,25,17045.0,17045.0,17045.0,17045.0,160,139,17045,50,17050,99
2016-10-20 08:13:00,08:13:06,08:13:59,4799,4936,17045.0,52,17050.0,93,17050.0,17050.0,17040.0,17050.0,156,82,17045,96,17050,59
2016-10-20 08:14:00,08:14:10,08:14:39,4949,5039,17045.0,111,17050.0,61,17050.0,17050.0,17045.0,17045.0,168,160,17045,70,17050,91
2016-10-20 08:15:00,08:15:32,08:15:59,5116,5160,17045.0,109,17050.0,78,17050.0,17050.0,17045.0,17050.0,43,41,17045,109,17050,48
2016-10-20 08:16:00,08:16:00,08:16:57,5164,5314,17045.0,109,17050.0,62,17050.0,17050.0,17045.0,17045.0,175,-63,17040,72,17045,38
2016-10-20 08:17:00,08:17:02,08:17:52,5325,5433,17040.0,68,17045.0,37,17045.0,17045.0,17045.0,17045.0,122,122,17045,36,17050,64
2016-10-20 08:18:00,08:18:09,08:18:47,5460,5661,17045.0,62,17050.0,52,17050.0,17055.0,17045.0,17045.0,310,130,17040,62,17045,68
2016-10-20 08:19:00,08:19:04,08:19:59,5672,5934,17040.0,67,17045.0,58,17040.0,17040.0,17030.0,17040.0,386,38,17040,24,17045,37
2016-10-20 08:20:00,08:20:00,08:20:52,5937,6092,17040.0,24,17045.0,37,17040.0,17045.0,17040.0,17045.0,265,221,17040,108,17045,17
2016-10-20 08:21:00,08:21:02,08:21:57,6109,6246,17040.0,129,17045.0,72,17045.0,17050.0,17040.0,17050.0,348,128,17045,147,17050,27
2016-10-20 08:22:00,08:22:00,08:22:59,6255,6404,17045.0,147,17050.0,34,17050.0,17050.0,17040.0,17040.0,238,-26,17040,66,17045,90
2016-10-20 08:23:00,08:23:17,08:23:47,6421,6506,17040.0,65,17045.0,64,17045.0,17045.0,17045.0,17045.0,205,129,17045,57,17050,57
2016-10-20 08:24:00,08:24:03,08:24:57,6523,6613,17045.0,31,17050.0,63,17045.0,17045.0,17040.0,17040.0,25,-5,17040,84,17045,41
2016-10-20 08:25:00,08:25:11,08:25:54,6636,6734,17040.0,104,17045.0,41,17045.0,17050.0,17040.0,17045.0,79,13,17040,114,17045,30
2016-10-20 08:26:00,08:26:16,08:26:52,6750,6805,17040.0,107,17045.0,26,17045.0,17045.0,17045.0,17045.0,24,24,17040,126,17045,47
2016-10-20 08:27:00,08:27:06,08:27:57,6823,6959,17040.0,104,17045.0,46,17045.0,17045.0,17045.0,17045.0,131,68,17040,109,17045,46
2016-10-20 08:28:00,08:28:02,08:28:57,6965,7166,17040.0,108,17045.0,49,17045.0,17045.0,17035.0,17045.0,267,-9,17045,19,17050,73
2016-10-20 08:29:00,08:29:00,08:29:55,7172,7419,17045.0,43,17050.0,73,17045.0,17060.0,17045.0,17055.0,380,96,17055,53,17060,60
2016-10-20 08:30:00,08:30:01,08:30:58,7430,7698,17055.0,49,17060.0,67,17060.0,17065.0,17055.0,17065.0,346,128,17060,45,17065,55
2016-10-20 08:31:00,08:31:05,08:31:52,7717,8005,17060.0,60,17065.0,42,17065.0,17080.0,17065.0,17075.0,462,139,17075,52,17080,83
2016-10-20 08:32:00,08:32:09,08:32:53,8035,8298,17075.0,71,17080.0,88,17080.0,17090.0,17075.0,17090.0,589,479,17085,54,17090,84
2016-10-20 08:33:00,08:33:06,08:33:51,8323,8646,17085.0,60,17090.0,72,17090.0,17095.0,17090.0,17095.0,558,498,17095,31,17100,95
2016-10-20 08:34:00,08:34:01,08:34:56,8671,8952,17095.0,48,17100.0,89,17100.0,17100.0,17095.0,17095.0,441,-43,17095,63,17100,54
2016-10-20 08:35:00,08:35:00,08:35:57,8960,9244,17095.0,64,17100.0,54,17100.0,17100.0,17095.0,17100.0,437,141,17095,62,17100,87
2016-10-20 08:36:00,08:36:01,08:36:56,9252,9366,17095.0,63,17100.0,67,17100.0,17100.0,17090.0,17095.0,72,-48,17090,68,17095,78
2016-10-20 08:37:00,08:37:04,08:37:57,9373,9493,17090.0,58,17095.0,79,17090.0,17095.0,17090.0,17095.0,93,-51,17090,61,17095,99
2016-10-20 08:38:00,08:38:07,08:38:59,9503,9923,17090.0,63,17095.0,101,17095.0,17110.0,17095.0,17110.0,958,825,17110,47,17115,129
2016-10-20 08:39:00,08:39:03,08:39:55,9934,10432,17110.0,78,17115.0,138,17110.0,17130.0,17105.0,17130.0,1102,333,17125,50,17130,12
2016-10-20 08:40:00,08:40:00,08:40:58,10452,10798,17125.0,49,17130.0,39,17125.0,17145.0,17125.0,17140.0,490,302,17140,54,17145,70
2016-10-20 08:41:00,08:41:07,08:41:56,10825,11489,17140.0,90,17145.0,68,17145.0,17165.0,17145.0,17155.0,1172,226,17150,29,17155,95
2016-10-20 08:42:00,08:42:00,08:42:59,11500,11917,17150.0,79,17155.0,116,17155.0,17155.0,17140.0,17150.0,755,-58,17145,31,17150,80
2016-10-20 08:43:00,08:43:08,08:43:44,11936,12043,17145.0,70,17150.0,78,17150.0,17150.0,17140.0,17140.0,69,-51,17140,111,17145,68
2016-10-20 08:44:00,08:44:07,08:44:58,12068,12340,17140.0,110,17145.0,86,17145.0,17145.0,17135.0,17145.0,438,24,17140,37,17145,68
2016-10-20 08:45:00,08:45:01,08:45:52,12347,12581,17140.0,27,17145.0,76,17145.0,17145.0,17140.0,17145.0,308,190,17140,65,17150,127
2016-10-20 08:46:00,08:46:05,08:46:57,12596,12769,17140.0,77,17145.0,23,17145.0,17145.0,17140.0,17140.0,153,-43,17140,43,17145,57
2016-10-20 08:47:00,08:47:01,08:47:57,12779,12938,17140.0,40,17145.0,64,17140.0,17140.0,17135.0,17135.0,153,-65,17135,1,17140,175
2016-10-20 08:48:00,08:48:01,08:48:58,12949,13202,17135.0,4,17140.0,176,17135.0,17140.0,17130.0,17130.0,211,-112,17130,9,17135,88
2016-10-20 08:49:00,08:49:04,08:49:55,13217,13405,17130.0,34,17135.0,90,17135.0,17135.0,17130.0,17135.0,141,-95,17130,31,17135,108
2016-10-20 08:50:00,08:50:01,08:50:59,13414,13695,17130.0,49,17135.0,106,17130.0,17150.0,17130.0,17145.0,469,229,17140,63,17145,34
2016-10-20 08:51:00,08:51:00,08:51:57,13696,13924,17140.0,61,17145.0,47,17145.0,17150.0,17140.0,17145.0,257,41,17140,58,17145,65
2016-10-20 08:52:00,08:52:01,08:52:55,13928,14064,17140.0,57,17145.0,64,17145.0,17145.0,17135.0,17135.0,115,-33,17135,49,17140,38
2016-10-20 08:53:00,08:53:02,08:53:58,14075,14258,17135.0,44,17140.0,55,17140.0,17145.0,17135.0,17140.0,130,44,17135,21,17140,68
2016-10-20 08:54:00,08:54:03,08:54:59,14265,14456,17135.0,15,17140.0,73,17135.0,17140.0,17135.0,17135.0,130,32,17135,1,17140,54
2016-10-20 08:55:00,08:55:06,08:55:57,14471,14631,17135.0,7,17140.0,107,17135.0,17145.0,17135.0,17145.0,134,92,17140,45,17145,42
2016-10-20 08:56:00,08:56:03,08:56:58,14644,14911,17140.0,38,17145.0,48,17140.0,17150.0,17140.0,17150.0,315,145,17145,115,17150,29
2016-10-20 08:57:00,08:57:00,08:57:59,14915,15040,17145.0,115,17150.0,21,17150.0,17150.0,17140.0,17145.0,119,-71,17140,48,17145,15
2016-10-20 08:58:00,08:58:06,08:58:52,15044,15152,17140.0,53,17145.0,19,17140.0,17145.0,17140.0,17140.0,63,11,17140,59,17145,38
2016-10-20 08:59:00,08:59:00,08:59:51,15160,15277,17140.0,56,17145.0,39,17145.0,17145.0,17140.0,17140.0,82,-4,17135,62,17140,20
2016-10-20 09:00:00,09:00:01,09:00:57,15292,15526,17135.0,65,17140.0,31,17140.0,17145.0,17140.0,17145.0,248,-98,17140,64,17145,56
2016-10-20 09:01:00,09:01:02,09:01:58,15533,15791,17140.0,62,17145.0,65,17140.0,17150.0,17135.0,17150.0,309,157,17145,67,17150,17
2016-10-20 09:02:00,09:02:08,09:02:58,15803,16032,17145.0,67,17150.0,50,17150.0,17150.0,17145.0,17150.0,280,5,17145,41,17150,33
2016-10-20 09:03:00,09:03:03,09:03:59,16039,16344,17145.0,39,17150.0,42,17145.0,17145.0,17125.0,17130.0,314,-228,17125,35,17130,51
2016-10-20 09:04:00,09:04:00,09:04:52,16345,16584,17125.0,43,17130.0,49,17130.0,17130.0,17120.0,17130.0,232,26,17125,68,17130,36
2016-10-20 09:05:00,09:05:00,09:05:58,16601,17070,17125.0,68,17130.0,40,17130.0,17140.0,17115.0,17130.0,631,-78,17125,54,17130,3
2016-10-20 09:06:00,09:06:08,09:06:54,17089,17174,17130.0,13,17135.0,84,17130.0,17135.0,17130.0,17135.0,42,-4,17130,51,17135,61
2016-10-20 09:07:00,09:07:00,09:07:55,17181,17313,17130.0,50,17135.0,66,17135.0,17135.0,17130.0,17135.0,74,-28,17130,31,17135,86
2016-10-20 09:08:00,09:08:00,09:08:58,17322,17457,17130.0,20,17135.0,93,17135.0,17135.0,17125.0,17125.0,80,-32,17125,40,17130,34
2016-10-20 09:09:00,09:09:02,09:09:57,17466,17642,17125.0,41,17130.0,42,17130.0,17130.0,17120.0,17125.0,99,-51,17120,69,17125,21
2016-10-20 09:10:00,09:10:03,09:10:58,17652,17773,17120.0,69,17125.0,10,17125.0,17135.0,17125.0,17135.0,108,86,17130,179,17135,69
2016-10-20 09:11:00,09:11:03,09:11:58,17782,17946,17130.0,180,17135.0,54,17135.0,17145.0,17130.0,17140.0,212,114,17135,84,17145,67
2016-10-20 09:12:00,09:12:17,09:12:58,17983,18093,17140.0,32,17145.0,62,17145.0,17145.0,17140.0,17145.0,77,-51,17140,50,17145,55
2016-10-20 09:13:00,09:13:00,09:13:59,18100,18288,17140.0,59,17145.0,50,17145.0,17145.0,17135.0,17145.0,175,-39,17140,36,17145,41
2016-10-20 09:14:00,09:14:09,09:14:59,18299,18378,17140.0,45,17145.0,43,17145.0,17145.0,17140.0,17145.0,33,1,17140,37,17145,43
2016-10-20 09:15:00,09:15:03,09:15:50,18383,18471,17140.0,33,17145.0,45,17140.0,17150.0,17140.0,17150.0,67,27,17145,85,17150,88
2016-10-20 09:16:00,09:16:00,09:16:58,18479,18613,17145.0,99,17150.0,88,17150.0,17150.0,17145.0,17145.0,173,-53,17140,44,17145,34
2016-10-20 09:17:00,09:17:01,09:17:52,18616,18741,17140.0,44,17145.0,34,17145.0,17150.0,17140.0,17145.0,168,-8,17140,43,17145,29
2016-10-20 09:18:00,09:18:02,09:18:47,18753,18888,17140.0,45,17145.0,9,17145.0,17150.0,17140.0,17145.0,88,-30,17140,142,17145,3
2016-10-20 09:19:00,09:19:01,09:19:56,18913,19167,17140.0,46,17145.0,18,17145.0,17165.0,17145.0,17165.0,280,262,17160,42,17165,49
2016-10-20 09:20:00,09:20:00,09:20:51,19182,19382,17160.0,52,17165.0,51,17165.0,17165.0,17160.0,17165.0,285,229,17160,155,17165,10
2016-10-20 09:21:00,09:21:16,09:21:57,19401,19571,17160.0,148,17165.0,73,17165.0,17165.0,17145.0,17150.0,194,-34,17150,65,17155,60
2016-10-20 09:22:00,09:22:02,09:22:59,19581,19720,17150.0,67,17155.0,41,17155.0,17155.0,17150.0,17150.0,150,40,17150,14,17155,91
2016-10-20 09:23:00,09:23:03,09:23:56,19731,19880,17150.0,7,17155.0,100,17155.0,17155.0,17145.0,17145.0,158,68,17140,52,17145,3
2016-10-20 09:24:00,09:24:00,09:24:52,19890,20091,17140.0,54,17145.0,14,17140.0,17145.0,17140.0,17145.0,179,-49,17140,70,17145,8
2016-10-20 09:25:00,09:25:41,09:25:53,20135,20172,17140.0,83,17145.0,23,17145.0,17145.0,17145.0,17145.0,40,-8,17140,69,17145,24
2016-10-20 09:26:00,09:26:02,09:26:53,20186,20288,17140.0,71,17145.0,33,17145.0,17145.0,17145.0,17145.0,43,15,17145,18,17145,24
2016-10-20 09:27:00,09:27:00,09:27:44,20292,20384,17145.0,18,17150.0,55,17145.0,17145.0,17145.0,17145.0,91,59,17145,22,17150,50
2016-10-20 09:28:00,09:28:02,09:28:58,20400,20532,17145.0,42,17150.0,49,17145.0,17145.0,17145.0,17145.0,147,-121,17145,14,17150,55
2016-10-20 09:29:00,09:29:03,09:29:54,20543,20720,17145.0,27,17150.0,48,17145.0,17155.0,17145.0,17155.0,210,122,17155,2,17160,51
2016-10-20 09:30:00,09:30:00,09:30:47,20733,20969,17155.0,9,17160.0,53,17160.0,17160.0,17155.0,17160.0,286,134,17155,47,17160,34
2016-10-20 09:31:00,09:31:04,09:31:04,20990,20990,17155.0,46,17160.0,46,17160.0,17160.0,17160.0,17160.0,3,3,17155,47,17160,41
2016-10-20 09:32:00,09:32:06,09:32:42,21029,21081,17155.0,36,17160.0,53,17155.0,17155.0,17155.0,17155.0,40,-38,17150,53,17155,38
2016-10-20 09:33:00,09:33:01,09:33:01,21099,21118,17150.0,50,17155.0,33,17155.0,17155.0,17155.0,17155.0,36,36,17150,50,17155,24
2016-10-20 09:34:00,09:34:36,09:34:58,21228,21312,17150.0,52,17155.0,63,17155.0,17155.0,17155.0,17155.0,119,27,17155,15,17160,55
2016-10-20 09:35:00,09:35:23,09:35:51,21361,21483,17155.0,72,17160.0,48,17155.0,17160.0,17155.0,17160.0,162,46,17160,11,17165,95
2016-10-20 09:36:00,09:36:20,09:36:42,21522,21577,17160.0,51,17165.0,94,17160.0,17160.0,17160.0,17160.0,68,-68,17160,112,17165,99
2016-10-20 09:37:00,09:37:04,09:37:56,21595,21692,17160.0,49,17165.0,92,17160.0,17160.0,17150.0,17150.0,84,-84,17150,37,17155,55
2016-10-20 09:38:00,09:38:05,09:38:51,21705,21815,17150.0,37,17155.0,58,17150.0,17155.0,17150.0,17150.0,108,-4,17150,13,17155,64
2016-10-20 09:39:00,09:39:11,09:39:55,21850,22013,17150.0,34,17155.0,65,17150.0,17150.0,17145.0,17145.0,202,62,17140,64,17145,1
2016-10-20 09:40:00,09:40:05,09:40:55,22031,22284,17140.0,89,17145.0,8,17145.0,17145.0,17135.0,17140.0,341,-147,17135,49,17140,35
2016-10-20 09:41:00,09:41:36,09:41:54,22318,22383,17135.0,67,17140.0,27,17140.0,17140.0,17140.0,17140.0,75,19,17140,8,17145,50
2016-10-20 09:42:00,09:42:02,09:42:56,22400,22570,17140.0,21,17145.0,49,17140.0,17140.0,17125.0,17130.0,183,-144,17130,19,17135,53
2016-10-20 09:43:00,09:43:05,09:43:51,22590,22685,17130.0,31,17135.0,43,17135.0,17140.0,17135.0,17135.0,66,-10,17135,12,17140,68
2016-10-20 09:44:00,09:44:02,09:44:49,22708,22790,17135.0,20,17140.0,62,17140.0,17140.0,17135.0,17135.0,14,-8,17130,48,17135,34
2016-10-20 09:45:00,09:45:03,09:45:58,22808,22931,17130.0,58,17135.0,42,17130.0,17145.0,17130.0,17145.0,101,99,17145,21,17150,43
2016-10-20 09:46:00,09:46:01,09:46:44,22937,22996,17145.0,21,17150.0,40,17145.0,17145.0,17145.0,17145.0,34,-2,17140,81,17145,27
2016-10-20 09:47:00,09:47:04,09:47:45,23018,23055,17140.0,78,17145.0,39,17140.0,17145.0,17140.0,17145.0,9,5,17140,80,17145,39
2016-10-20 09:48:00,09:48:04,09:48:53,23089,23248,17140.0,73,17145.0,40,17140.0,17145.0,17140.0,17140.0,167,-111,17140,28,17145,47
2016-10-20 09:49:00,09:49:07,09:49:57,23273,23359,17140.0,43,17145.0,43,17140.0,17140.0,17140.0,17140.0,61,-15,17135,49,17140,37
2016-10-20 09:50:00,09:50:08,09:50:56,23370,23468,17135.0,49,17140.0,39,17140.0,17145.0,17140.0,17140.0,97,13,17140,19,17145,48
2016-10-20 09:51:00,09:51:08,09:51:49,23486,23567,17140.0,30,17145.0,54,17145.0,17145.0,17140.0,17140.0,73,-25,17140,4,17145,59
2016-10-20 09:52:00,09:52:09,09:52:59,23589,23627,17140.0,30,17145.0,45,17145.0,17145.0,17145.0,17145.0,6,6,17140,53,17145,29
2016-10-20 09:53:00,09:53:04,09:53:59,23633,23900,17140.0,56,17145.0,30,17140.0,17155.0,17140.0,17155.0,332,104,17150,58,17155,39
2016-10-20 09:54:00,09:54:00,09:54:59,23901,24068,17150.0,55,17155.0,40,17155.0,17155.0,17150.0,17155.0,182,58,17150,55,17155,14
2016-10-20 09:55:00,09:55:00,09:55:50,24073,24225,17150.0,58,17155.0,11,17150.0,17160.0,17150.0,17155.0,141,45,17155,16,17160,65
2016-10-20 09:56:00,09:56:03,09:56:51,24250,24365,17155.0,12,17160.0,68,17160.0,17165.0,17160.0,17165.0,215,205,17160,79,17165,56
2016-10-20 09:57:00,09:57:06,09:57:50,24375,24481,17160.0,79,17165.0,58,17165.0,17165.0,17160.0,17160.0,103,-17,17155,41,17160,70
2016-10-20 09:58:00,09:58:04,09:58:24,24511,24598,17155.0,65,17160.0,49,17160.0,17160.0,17160.0,17160.0,122,-6,17155,57,17160,51
2016-10-20 09:59:00,09:59:30,09:59:54,24662,24791,17155.0,27,17160.0,65,17155.0,17155.0,17155.0,17155.0,118,-36,17155,8,17160,75
2016-10-20 10:00:00,10:00:00,10:00:56,24808,24947,17155.0,26,17160.0,69,17155.0,17160.0,17155.0,17155.0,75,-43,17150,47,17155,33
2016-10-20 10:01:00,10:01:02,10:01:57,24953,25207,17150.0,47,17155.0,34,17155.0,17170.0,17155.0,17170.0,303,195,17165,17,17170,114
2016-10-20 10:02:00,10:02:01,10:02:48,25221,25329,17165.0,22,17170.0,115,17165.0,17165.0,17160.0,17160.0,81,-31,17160,55,17165,44
2016-10-20 10:03:00,10:03:08,10:03:56,25364,25832,17160.0,59,17165.0,49,17160.0,17185.0,17160.0,17180.0,875,786,17175,57,17180,11
2016-10-20 10:04:00,10:04:00,10:04:59,25844,26083,17175.0,48,17180.0,21,17180.0,17185.0,17170.0,17175.0,231,41,17175,23,17180,61
2016-10-20 10:05:00,10:05:13,10:05:59,26110,26354,17175.0,48,17180.0,58,17175.0,17195.0,17175.0,17190.0,342,323,17185,106,17190,57
2016-10-20 10:06:00,10:06:03,10:06:59,26368,26496,17185.0,108,17190.0,80,17185.0,17185.0,17180.0,17185.0,165,-45,17180,165,17185,20
2016-10-20 10:07:00,10:07:00,10:07:56,26500,26743,17180.0,165,17185.0,19,17185.0,17190.0,17170.0,17175.0,334,-30,17170,56,17175,63
2016-10-20 10:08:00,10:08:11,10:08:56,26779,26942,17170.0,69,17175.0,49,17175.0,17185.0,17175.0,17185.0,183,131,17180,61,17185,37
2016-10-20 10:09:00,10:09:00,10:09:56,26951,27159,17180.0,65,17185.0,42,17185.0,17195.0,17180.0,17195.0,176,66,17190,39,17195,46
2016-10-20 10:10:00,10:10:01,10:10:55,27170,27286,17190.0,43,17195.0,47,17195.0,17195.0,17190.0,17190.0,72,-38,17185,35,17190,116
2016-10-20 10:11:00,10:11:01,10:11:41,27300,27338,17185.0,36,17190.0,111,17185.0,17185.0,17185.0,17185.0,15,-15,17185,72,17190,95
2016-10-20 10:12:00,10:12:01,10:12:55,27351,27488,17185.0,80,17190.0,92,17190.0,17195.0,17190.0,17195.0,131,125,17190,118,17195,46
2016-10-20 10:13:00,10:13:00,10:13:59,27494,27752,17190.0,114,17195.0,58,17190.0,17195.0,17180.0,17185.0,293,-185,17180,75,17190,75
2016-10-20 10:14:00,10:14:00,10:14:41,27757,27856,17180.0,74,17185.0,6,17185.0,17190.0,17180.0,17180.0,69,9,17180,58,17185,47
2016-10-20 10:15:00,10:15:11,10:15:31,27891,27955,17180.0,54,17185.0,91,17180.0,17180.0,17180.0,17180.0,76,-76,17180,8,17185,86
2016-10-20 10:16:00,10:16:15,10:16:57,28010,28208,17180.0,57,17185.0,93,17180.0,17180.0,17175.0,17175.0,195,73,17170,76,17175,47
2016-10-20 10:17:00,10:17:04,10:17:27,28217,28245,17170.0,76,17175.0,49,17175.0,17175.0,17175.0,17175.0,57,41,17175,59,17180,39
2016-10-20 10:18:00,10:18:03,10:18:53,28284,28432,17175.0,58,17180.0,64,17175.0,17175.0,17175.0,17175.0,88,-86,17170,75,17175,36
2016-10-20 10:19:00,10:19:08,10:19:57,28455,28542,17170.0,67,17175.0,62,17170.0,17175.0,17170.0,17170.0,111,-7,17170,26,17175,55
2016-10-20 10:20:00,10:20:06,10:20:50,28560,28634,17170.0,55,17175.0,88,17175.0,17175.0,17170.0,17170.0,28,16,17170,66,17175,65
2016-10-20 10:21:00,10:21:00,10:21:52,28641,28797,17170.0,69,17175.0,67,17175.0,17175.0,17170.0,17170.0,139,-30,17165,76,17170,30
2016-10-20 10:22:00,10:22:13,10:22:35,28824,28867,17165.0,69,17170.0,70,17165.0,17165.0,17165.0,17165.0,30,-30,17165,53,17170,55
2016-10-20 10:23:00,10:23:04,10:23:49,28903,28966,17165.0,65,17170.0,56,17165.0,17165.0,17165.0,17165.0,11,-11,17165,51,17170,67
2016-10-20 10:24:00,10:24:05,10:24:56,28988,29116,17165.0,37,17170.0,85,17165.0,17170.0,17165.0,17170.0,98,72,17165,87,17170,42
2016-10-20 10:25:00,10:25:15,10:25:55,29140,29211,17165.0,91,17170.0,59,17165.0,17175.0,17165.0,17175.0,53,27,17170,56,17175,91
2016-10-20 10:26:00,10:26:06,10:26:56,29221,29295,17170.0,57,17175.0,95,17175.0,17175.0,17165.0,17165.0,53,-51,17165,68,17170,69
2016-10-20 10:27:00,10:27:07,10:27:57,29307,29441,17165.0,64,17170.0,85,17165.0,17170.0,17160.0,17170.0,103,3,17165,38,17170,75
2016-10-20 10:28:00,10:28:01,10:28:59,29447,29586,17165.0,37,17170.0,75,17170.0,17175.0,17170.0,17175.0,138,126,17170,115,17175,114
2016-10-20 10:29:00,10:29:05,10:29:58,29593,29693,17170.0,119,17175.0,116,17170.0,17175.0,17170.0,17175.0,63,-61,17170,72,17175,103
2016-10-20 10:30:00,10:30:02,10:30:57,29704,29891,17170.0,73,17175.0,112,17170.0,17170.0,17165.0,17170.0,166,-10,17165,90,17170,30
2016-10-20 10:31:00,10:31:08,10:31:59,29897,29980,17165.0,93,17170.0,33,17170.0,17175.0,17170.0,17170.0,58,52,17170,53,17175,82
2016-10-20 10:32:00,10:32:00,10:32:39,29983,30075,17170.0,53,17175.0,82,17170.0,17170.0,17170.0,17170.0,64,-18,17165,59,17170,46
2016-10-20 10:33:00,10:33:06,10:33:59,30095,30134,17165.0,62,17170.0,50,17165.0,17170.0,17165.0,17170.0,8,4,17165,65,17170,54
2016-10-20 10:34:00,10:34:00,10:34:56,30135,30286,17165.0,68,17170.0,56,17170.0,17175.0,17170.0,17170.0,126,-3,17165,55,17170,43
2016-10-20 10:35:00,10:35:00,10:35:00,0,0,0.0,0,0.0,0,17170.0,17170.0,17170.0,17170.0,0,0,0,0,0,0
2016-10-20 10:36:00,10:36:01,10:36:44,30327,30396,17165.0,55,17170.0,50,17170.0,17170.0,17165.0,17170.0,48,-36,17165,57,17170,50
2016-10-20 10:37:00,10:37:03,10:37:13,30400,30426,17165.0,42,17170.0,50,17165.0,17165.0,17165.0,17165.0,31,-31,17160,72,17165,32
2016-10-20 10:38:00,10:38:09,10:38:52,30453,30526,17160.0,76,17165.0,48,17160.0,17165.0,17160.0,17165.0,82,66,17160,92,17165,2
2016-10-20 10:39:00,10:39:03,10:39:03,30544,30548,17160.0,92,17165.0,8,17165.0,17165.0,17165.0,17165.0,5,5,17160,93,17165,2
2016-10-20 10:40:00,10:40:04,10:40:49,30599,30624,17160.0,92,17165.0,34,17160.0,17165.0,17160.0,17165.0,3,-1,17160,89,17165,40
2016-10-20 10:41:00,10:41:01,10:41:33,30636,30664,17160.0,61,17165.0,40,17165.0,17165.0,17160.0,17165.0,8,4,17160,53,17165,43
2016-10-20 10:42:00,10:42:01,10:42:53,30682,30784,17160.0,47,17165.0,48,17160.0,17165.0,17160.0,17165.0,83,-22,17160,50,17165,18
2016-10-20 10:43:00,10:43:30,10:43:50,30816,30869,17160.0,52,17165.0,35,17165.0,17170.0,17165.0,17170.0,37,37,17165,46,17170,47
2016-10-20 10:44:00,10:44:02,10:44:20,30873,30882,17165.0,46,17170.0,55,17165.0,17170.0,17165.0,17170.0,3,1,17165,46,17170,54
2016-10-20 10:45:00,10:45:01,10:45:01,30892,30892,17165.0,46,17170.0,51,17165.0,17165.0,17165.0,17165.0,1,-1,17165,45,17170,49
2016-10-20 10:46:00,10:46:08,10:46:31,30911,31031,17165.0,65,17170.0,50,17165.0,17175.0,17165.0,17175.0,160,154,17175,52,17180,95
2016-10-20 10:47:00,10:47:09,10:47:47,31044,31085,17175.0,40,17180.0,97,17175.0,17175.0,17170.0,17170.0,59,-23,17170,41,17175,58
2016-10-20 10:48:00,10:48:05,10:48:59,31099,31157,17170.0,46,17175.0,52,17170.0,17170.0,17170.0,17170.0,12,-12,17170,43,17175,55
2016-10-20 10:49:00,10:49:02,10:49:47,31163,31257,17170.0,52,17175.0,56,17170.0,17175.0,17170.0,17175.0,81,-45,17170,32,17175,63
2016-10-20 10:50:00,10:50:14,10:50:45,31264,31425,17170.0,32,17175.0,63,17175.0,17175.0,17160.0,17165.0,167,-1,17160,47,17165,2
2016-10-20 10:51:00,10:51:51,10:51:51,31466,31497,17160.0,90,17165.0,46,17165.0,17165.0,17165.0,17165.0,72,62,17165,21,17170,68
2016-10-20 10:52:00,10:52:24,10:52:45,31524,31608,17165.0,51,17170.0,58,17165.0,17170.0,17165.0,17170.0,96,-38,17165,24,17170,57
2016-10-20 10:53:00,10:53:28,10:53:59,31646,31681,17165.0,9,17170.0,61,17165.0,17165.0,17165.0,17165.0,30,-12,17165,12,17170,59
2016-10-20 10:54:00,10:54:03,10:54:57,31689,31738,17165.0,5,17170.0,60,17165.0,17170.0,17165.0,17165.0,27,21,17165,25,17170,55
2016-10-20 10:55:00,10:55:06,10:55:46,31751,31799,17165.0,19,17170.0,58,17165.0,17165.0,17165.0,17165.0,34,-32,17160,72,17165,25
2016-10-20 10:56:00,10:56:07,10:56:36,31818,31857,17160.0,73,17165.0,24,17165.0,17165.0,17165.0,17165.0,37,7,17160,73,17165,6
2016-10-20 10:57:00,10:57:00,10:57:00,0,0,0.0,0,0.0,0,17165.0,17165.0,17165.0,17165.0,0,0,0,0,0,0
2016-10-20 10:58:00,10:58:00,10:58:58,31904,31963,17160.0,69,17165.0,56,17160.0,17165.0,17160.0,17165.0,53,-47,17160,61,17165,60
2016-10-20 10:59:00,10:59:08,10:59:53,31975,32042,17160.0,61,17165.0,59,17160.0,17160.0,17155.0,17160.0,32,-30,17160,37,17160,40
2016-10-20 11:00:00,11:00:00,11:00:33,32046,32113,17155.0,69,17160.0,38,17160.0,17160.0,17160.0,17160.0,53,25,17160,34,17165,60
2016-10-20 11:01:00,11:01:00,11:01:49,32149,32206,17160.0,45,17165.0,58,17160.0,17165.0,17160.0,17165.0,39,-9,17160,38,17165,63
2016-10-20 11:02:00,11:02:00,11:02:32,32215,32241,17160.0,40,17165.0,61,17160.0,17165.0,17160.0,17160.0,16,-8,17160,18,17165,63
2016-10-20 11:03:00,11:03:11,11:03:11,32267,32289,17160.0,36,17165.0,57,17160.0,17160.0,17160.0,17160.0,40,-36,17160,15,17165,64
2016-10-20 11:04:00,11:04:05,11:04:39,32331,32353,17160.0,18,17165.0,66,17160.0,17160.0,17160.0,17160.0,9,-9,17160,11,17165,64
2016-10-20 11:05:00,11:05:00,11:05:00,0,0,0.0,0,0.0,0,17160.0,17160.0,17160.0,17160.0,0,0,0,0,0,0
2016-10-20 11:06:00,11:06:08,11:06:55,32400,32542,17160.0,60,17165.0,50,17165.0,17170.0,17165.0,17165.0,167,19,17160,59,17165,9
2016-10-20 11:07:00,11:07:49,11:07:49,32590,32606,17165.0,25,17170.0,39,17170.0,17170.0,17170.0,17170.0,24,24,17170,4,17175,55
2016-10-20 11:08:00,11:08:42,11:08:42,32654,32656,17170.0,37,17175.0,58,17175.0,17175.0,17175.0,17175.0,3,3,17170,35,17175,56
2016-10-20 11:09:00,11:09:09,11:09:29,32681,32739,17170.0,56,17175.0,55,17170.0,17175.0,17170.0,17175.0,90,86,17170,62,17180,91
2016-10-20 11:10:00,11:10:15,11:10:15,32787,32798,17170.0,57,17175.0,35,17175.0,17175.0,17175.0,17175.0,13,13,17170,62,17175,13
2016-10-20 11:11:00,11:11:04,11:11:06,32840,32843,17170.0,61,17175.0,13,17175.0,17175.0,17170.0,17170.0,4,0,17170,62,17175,23
2016-10-20 11:12:00,11:12:07,11:12:57,32870,32942,17170.0,62,17175.0,33,17170.0,17180.0,17170.0,17180.0,47,-11,17170,65,17180,104
2016-10-20 11:13:00,11:13:38,11:13:38,32974,32974,17170.0,70,17175.0,17,17175.0,17175.0,17175.0,17175.0,1,1,17170,69,17175,16
2016-10-20 11:14:00,11:14:07,11:14:48,33004,33021,17170.0,49,17175.0,33,17170.0,17175.0,17170.0,17175.0,17,-15,17170,30,17175,58
2016-10-20 11:15:00,11:15:06,11:15:59,33028,33101,17170.0,28,17175.0,58,17175.0,17175.0,17170.0,17175.0,52,6,17170,7,17175,60
2016-10-20 11:16:00,11:16:01,11:16:49,33104,33148,17170.0,7,17175.0,60,17175.0,17175.0,17175.0,17175.0,8,8,17170,58,17175,48
2016-10-20 11:17:00,11:17:01,11:17:40,33155,33174,17170.0,58,17175.0,46,17170.0,17175.0,17170.0,17175.0,3,-1,17170,59,17175,39
2016-10-20 11:18:00,11:18:07,11:18:17,33185,33201,17170.0,57,17175.0,42,17170.0,17175.0,17170.0,17175.0,26,22,17175,33,17180,85
2016-10-20 11:19:00,11:19:16,11:19:46,33250,33288,17175.0,48,17180.0,91,17180.0,17180.0,17175.0,17175.0,25,21,17175,49,17180,83
2016-10-20 11:20:00,11:20:09,11:20:38,33311,33343,17175.0,72,17180.0,83,17175.0,17180.0,17175.0,17180.0,26,22,17175,77,17180,58
2016-10-20 11:21:00,11:21:09,11:21:45,33363,33431,17175.0,61,17180.0,68,17175.0,17175.0,17175.0,17175.0,82,-82,17175,6,17180,82
2016-10-20 11:22:00,11:22:13,11:22:14,33467,33476,17175.0,8,17180.0,89,17175.0,17175.0,17175.0,17175.0,10,-6,17175,8,17180,87
2016-10-20 11:23:00,11:23:36,11:23:59,33551,33584,17175.0,13,17180.0,91,17175.0,17175.0,17175.0,17175.0,26,-8,17170,55,17175,7
2016-10-20 11:24:00,11:24:42,11:24:52,33609,33615,17170.0,47,17175.0,41,17175.0,17175.0,17175.0,17175.0,3,3,17170,47,17175,31
2016-10-20 11:25:00,11:25:07,11:25:53,33624,33653,17170.0,49,17175.0,37,17170.0,17175.0,17170.0,17175.0,6,2,17170,46,17175,37
2016-10-20 11:26:00,11:26:03,11:26:39,33663,33692,17170.0,47,17175.0,37,17175.0,17175.0,17170.0,17170.0,6,-2,17170,43,17175,40
2016-10-20 11:27:00,11:27:04,11:27:04,33706,33707,17170.0,47,17175.0,35,17170.0,17170.0,17170.0,17170.0,2,-2,17170,46,17175,38
2016-10-20 11:28:00,11:28:02,11:28:02,33740,33741,17170.0,51,17175.0,38,17170.0,17170.0,17170.0,17170.0,2,-2,17170,50,17175,36
2016-10-20 11:29:00,11:29:04,11:29:55,33759,33867,17170.0,50,17175.0,39,17170.0,17170.0,17165.0,17165.0,79,-77,17165,2,17170,78
2016-10-20 11:30:00,11:30:00,11:30:55,33875,34095,17165.0,33,17170.0,64,17165.0,17170.0,17165.0,17165.0,162,22,17165,20,17170,84
2016-10-20 11:31:00,11:31:30,11:31:42,34164,34301,17165.0,53,17170.0,80,17165.0,17180.0,17165.0,17180.0,223,187,17180,30,17185,66
2016-10-20 11:32:00,11:32:07,11:32:57,34349,34570,17180.0,80,17185.0,82,17180.0,17190.0,17180.0,17185.0,333,177,17180,58,17185,54
2016-10-20 11:33:00,11:33:00,11:33:52,34575,34689,17180.0,58,17185.0,41,17185.0,17185.0,17185.0,17185.0,147,17,17180,58,17190,79
2016-10-20 11:34:00,11:34:00,11:34:37,34699,34784,17180.0,51,17185.0,23,17185.0,17195.0,17185.0,17195.0,158,74,17190,37,17195,71
2016-10-20 11:35:00,11:35:18,11:35:45,34840,34893,17190.0,43,17195.0,81,17195.0,17195.0,17190.0,17190.0,12,-2,17190,30,17195,96
2016-10-20 11:36:00,11:36:02,11:36:59,34921,35044,17190.0,34,17195.0,110,17190.0,17190.0,17180.0,17180.0,52,-44,17180,58,17185,60
2016-10-20 11:37:00,11:37:00,11:37:50,35045,35207,17180.0,51,17185.0,61,17180.0,17190.0,17180.0,17190.0,185,123,17190,28,17195,199
2016-10-20 11:38:00,11:38:00,11:38:59,35223,35419,17190.0,23,17195.0,207,17190.0,17200.0,17190.0,17200.0,221,149,17200,22,17205,106
2016-10-20 11:39:00,11:39:01,11:39:58,35423,35564,17200.0,26,17205.0,105,17200.0,17200.0,17195.0,17200.0,244,78,17200,41,17205,125
2016-10-20 11:40:00,11:40:04,11:40:43,35568,35641,17200.0,40,17205.0,125,17200.0,17205.0,17200.0,17200.0,65,39,17200,110,17205,83
2016-10-20 11:41:00,11:41:01,11:41:53,35662,35927,17200.0,116,17205.0,90,17200.0,17205.0,17195.0,17195.0,441,-85,17195,72,17200,55
2016-10-20 11:42:00,11:42:03,11:42:56,35937,36099,17195.0,69,17200.0,71,17195.0,17205.0,17195.0,17205.0,209,115,17205,15,17210,193
2016-10-20 11:43:00,11:43:13,11:43:58,36130,36339,17205.0,25,17210.0,192,17205.0,17210.0,17195.0,17195.0,361,-177,17190,21,17195,89
2016-10-20 11:44:00,11:44:09,11:44:16,36356,36374,17190.0,58,17195.0,59,17190.0,17195.0,17190.0,17195.0,23,19,17190,72,17195,24
2016-10-20 11:45:00,11:45:03,11:45:54,36420,36601,17190.0,56,17195.0,88,17190.0,17195.0,17190.0,17195.0,287,-133,17190,82,17195,16
2016-10-20 11:46:00,11:46:00,11:46:56,36613,36793,17190.0,73,17195.0,31,17195.0,17200.0,17195.0,17200.0,290,160,17195,119,17200,33
2016-10-20 11:47:00,11:47:37,11:47:57,36826,36877,17195.0,53,17200.0,81,17195.0,17200.0,17195.0,17200.0,102,12,17195,167,17200,50
2016-10-20 11:48:00,11:48:02,11:48:51,36882,36987,17195.0,163,17200.0,50,17200.0,17200.0,17200.0,17200.0,101,43,17200,75,17205,87
2016-10-20 11:49:00,11:49:08,11:49:52,37005,37096,17200.0,76,17205.0,92,17200.0,17200.0,17190.0,17190.0,210,-210,17190,84,17195,48
2016-10-20 11:50:00,11:50:01,11:50:53,37107,37252,17190.0,80,17195.0,53,17190.0,17195.0,17190.0,17190.0,148,52,17190,89,17195,23
2016-10-20 11:51:00,11:51:01,11:51:53,37255,37373,17190.0,90,17195.0,51,17190.0,17195.0,17190.0,17190.0,157,-83,17190,8,17195,95
2016-10-20 11:52:00,11:52:03,11:52:47,37387,37558,17190.0,7,17195.0,95,17190.0,17190.0,17190.0,17190.0,223,-91,17190,54,17195,94
2016-10-20 11:53:00,11:53:20,11:53:51,37579,37637,17190.0,139,17195.0,91,17195.0,17195.0,17195.0,17195.0,113,97,17195,33,17200,92
2016-10-20 11:54:00,11:54:01,11:54:58,37642,37826,17195.0,34,17200.0,93,17195.0,17205.0,17195.0,17205.0,247,187,17200,111,17205,82
2016-10-20 11:55:00,11:55:07,11:55:39,37839,37876,17200.0,110,17205.0,89,17205.0,17205.0,17205.0,17205.0,20,20,17200,137,17205,72
2016-10-20 11:56:00,11:56:05,11:56:50,37887,38081,17200.0,137,17205.0,72,17200.0,17200.0,17180.0,17185.0,283,-265,17185,36,17190,112
2016-10-20 11:57:00,11:57:10,11:57:59,38101,38250,17185.0,87,17190.0,113,17185.0,17195.0,17185.0,17190.0,195,183,17190,33,17195,128
2016-10-20 11:58:00,11:58:07,11:58:38,38264,38323,17190.0,37,17195.0,126,17190.0,17190.0,17185.0,17185.0,25,-25,17185,70,17190,70
2016-10-20 11:59:00,11:59:10,11:59:59,38352,38453,17185.0,79,17190.0,96,17185.0,17185.0,17185.0,17185.0,85,-1,17185,49,17190,85
2016-10-20 12:00:00,12:00:02,12:00:58,38461,38696,17185.0,84,17190.0,73,17185.0,17185.0,17175.0,17185.0,330,-90,17185,90,17185,77
2016-10-20 12:01:00,12:01:05,12:01:57,38700,38817,17180.0,89,17185.0,80,17185.0,17190.0,17180.0,17185.0,150,14,17180,48,17185,36
2016-10-20 12:02:00,12:02:07,12:02:51,38823,38907,17180.0,48,17185.0,38,17185.0,17190.0,17185.0,17190.0,74,52,17190,75,17195,38
2016-10-20 12:03:00,12:03:03,12:03:59,38930,39082,17190.0,43,17195.0,90,17190.0,17195.0,17190.0,17195.0,146,-12,17190,88,17195,53
2016-10-20 12:04:00,12:04:09,12:04:52,39091,39110,17190.0,73,17195.0,71,17195.0,17195.0,17195.0,17195.0,7,7,17190,72,17195,61
2016-10-20 12:05:00,12:05:09,12:05:50,39126,39169,17190.0,74,17195.0,67,17190.0,17195.0,17190.0,17195.0,9,5,17190,79,17195,63
2016-10-20 12:06:00,12:06:00,12:06:33,39173,39236,17190.0,76,17195.0,63,17195.0,17200.0,17190.0,17195.0,70,4,17190,66,17195,48
2016-10-20 12:07:00,12:07:08,12:07:48,39267,39318,17190.0,50,17195.0,73,17190.0,17190.0,17185.0,17185.0,17,-17,17185,10,17190,99
2016-10-20 12:08:00,12:08:01,12:08:33,39332,39374,17185.0,57,17190.0,98,17185.0,17190.0,17185.0,17190.0,49,45,17190,57,17195,89
2016-10-20 12:09:00,12:09:00,12:09:00,0,0,0.0,0,0.0,0,17190.0,17190.0,17190.0,17190.0,0,0,0,0,0,0
2016-10-20 12:10:00,12:10:02,12:10:48,39420,39495,17190.0,36,17195.0,79,17190.0,17200.0,17190.0,17200.0,114,108,17195,132,17200,29
2016-10-20 12:11:00,12:11:00,12:11:49,39503,39621,17195.0,130,17200.0,44,17200.0,17205.0,17200.0,17200.0,207,47,17200,33,17205,103
2016-10-20 12:12:00,12:12:00,12:12:34,39638,39730,17200.0,89,17205.0,106,17200.0,17200.0,17195.0,17195.0,170,-106,17195,93,17200,70
2016-10-20 12:13:00,12:13:19,12:13:19,39767,39776,17195.0,80,17200.0,58,17200.0,17200.0,17200.0,17200.0,24,24,17195,82,17200,33
2016-10-20 12:14:00,12:14:08,12:14:32,39807,39888,17195.0,81,17200.0,55,17195.0,17200.0,17195.0,17200.0,94,-10,17195,68,17200,62
2016-10-20 12:15:00,12:15:20,12:15:37,39941,40025,17195.0,86,17200.0,37,17200.0,17200.0,17200.0,17200.0,103,17,17195,84,17200,41
2016-10-20 12:16:00,12:16:39,12:16:54,40070,40133,17195.0,91,17200.0,37,17200.0,17200.0,17200.0,17200.0,74,4,17200,16,17190,71
2016-10-20 12:17:00,12:17:02,12:17:57,40144,40379,17200.0,18,17205.0,94,17200.0,17200.0,17180.0,17180.0,422,-312,17180,21,17185,155
2016-10-20 12:18:00,12:18:00,12:18:56,40383,40441,17180.0,22,17185.0,153,17180.0,17180.0,17180.0,17180.0,32,-32,17180,23,17185,167
2016-10-20 12:19:00,12:19:00,12:19:59,40448,40656,17180.0,24,17185.0,165,17180.0,17190.0,17175.0,17190.0,314,172,17185,14,17190,69
2016-10-20 12:20:00,12:20:00,12:20:59,40659,40767,17185.0,14,17190.0,69,17190.0,17190.0,17185.0,17185.0,96,-18,17185,38,17190,82
2016-10-20 12:21:00,12:21:09,12:21:21,40779,40815,17185.0,28,17190.0,82,17185.0,17185.0,17185.0,17185.0,31,-7,17185,18,17190,86
2016-10-20 12:22:00,12:22:02,12:22:02,40861,40888,17185.0,47,17190.0,85,17190.0,17190.0,17190.0,17190.0,83,83,17190,76,17195,54
2016-10-20 12:23:00,12:23:05,12:23:48,40919,40989,17190.0,83,17195.0,31,17190.0,17195.0,17190.0,17195.0,128,74,17190,66,17195,13
2016-10-20 12:24:00,12:24:00,12:24:49,40998,41105,17190.0,72,17195.0,29,17190.0,17195.0,17190.0,17195.0,96,36,17190,72,17195,4
2016-10-20 12:25:00,12:25:20,12:25:46,41115,41199,17190.0,68,17195.0,28,17195.0,17195.0,17195.0,17195.0,122,-24,17195,9,17200,75
2016-10-20 12:26:00,12:26:04,12:26:53,41214,41313,17195.0,17,17200.0,70,17195.0,17195.0,17195.0,17195.0,126,-48,17190,58,17195,29
2016-10-20 12:27:00,12:27:06,12:27:56,41322,41428,17190.0,62,17195.0,37,17190.0,17190.0,17185.0,17190.0,103,-67,17185,57,17190,26
2016-10-20 12:28:00,12:28:00,12:28:58,41432,41506,17185.0,58,17190.0,26,17185.0,17195.0,17185.0,17195.0,65,41,17195,7,17200,64
2016-10-20 12:29:00,12:29:00,12:29:59,41510,41632,17195.0,7,17200.0,65,17195.0,17195.0,17195.0,17195.0,98,-50,17190,71,17195,32
2016-10-20 12:30:00,12:30:12,12:30:55,41650,41791,17190.0,70,17195.0,36,17195.0,17205.0,17195.0,17205.0,193,117,17200,70,17205,7
2016-10-20 12:31:00,12:31:00,12:31:45,41801,41932,17200.0,66,17205.0,40,17200.0,17200.0,17195.0,17195.0,163,-163,17195,65,17200,38
2016-10-20 12:32:00,12:32:11,12:32:31,41949,41961,17195.0,61,17200.0,53,17195.0,17195.0,17195.0,17195.0,2,-2,17195,56,17200,54
2016-10-20 12:33:00,12:33:05,12:33:35,41982,42187,17195.0,55,17200.0,69,17195.0,17195.0,17180.0,17190.0,341,-241,17185,31,17190,92
2016-10-20 12:34:00,12:34:35,12:34:58,42275,42348,17185.0,44,17190.0,88,17185.0,17185.0,17185.0,17185.0,89,-76,17185,2,17190,155
2016-10-20 12:35:00,12:35:00,12:35:00,0,0,0.0,0,0.0,0,17185.0,17185.0,17185.0,17185.0,0,0,0,0,0,0
2016-10-20 12:36:00,12:36:02,12:36:05,42425,42463,17185.0,61,17190.0,60,17185.0,17190.0,17185.0,17190.0,79,75,17190,45,17195,76
2016-10-20 12:37:00,12:37:14,12:37:37,42500,42540,17190.0,51,17195.0,37,17195.0,17195.0,17190.0,17190.0,36,-30,17190,30,17195,48
2016-10-20 12:38:00,12:38:05,12:38:05,42567,42578,17190.0,76,17195.0,38,17195.0,17195.0,17195.0,17195.0,19,19,17190,78,17195,14
2016-10-20 12:39:00,12:39:05,12:39:33,42640,42681,17190.0,125,17195.0,115,17195.0,17195.0,17190.0,17190.0,127,125,17190,71,17195,25
2016-10-20 12:40:00,12:40:05,12:40:06,42714,42747,17190.0,73,17195.0,27,17195.0,17195.0,17195.0,17195.0,56,32,17190,78,17195,12
2016-10-20 12:41:00,12:41:00,12:41:00,0,0,0.0,0,0.0,0,17195.0,17195.0,17195.0,17195.0,0,0,0,0,0,0
2016-10-20 12:42:00,12:42:08,12:42:08,42784,42784,17190.0,79,17195.0,29,17190.0,17190.0,17190.0,17190.0,2,-2,17190,77,17195,32
2016-10-20 12:43:00,12:43:04,12:43:55,42812,42910,17190.0,79,17195.0,46,17190.0,17195.0,17190.0,17195.0,70,52,17190,71,17195,35
2016-10-20 12:44:00,12:44:34,12:44:50,42928,42954,17190.0,75,17195.0,32,17195.0,17195.0,17195.0,17195.0,71,-9,17190,46,17195,5
2016-10-20 12:45:00,12:45:52,12:45:52,42985,42985,17190.0,52,17195.0,40,17190.0,17190.0,17190.0,17190.0,1,-1,17190,48,17195,50
2016-10-20 12:46:00,12:46:03,12:46:03,42993,42994,17190.0,48,17195.0,50,17190.0,17190.0,17190.0,17190.0,2,-2,17190,46,17195,48
2016-10-20 12:47:00,12:47:09,12:47:58,43030,43063,17190.0,47,17195.0,56,17190.0,17195.0,17190.0,17190.0,23,17,17190,43,17195,45
2016-10-20 12:48:00,12:48:01,12:48:28,43069,43091,17190.0,40,17195.0,49,17190.0,17195.0,17190.0,17195.0,15,9,17190,44,17195,45
2016-10-20 12:49:00,12:49:03,12:49:43,43113,43137,17190.0,42,17195.0,75,17190.0,17190.0,17190.0,17190.0,3,-3,17190,38,17195,79
2016-10-20 12:50:00,12:50:01,12:50:58,43150,43288,17190.0,33,17195.0,84,17190.0,17190.0,17185.0,17190.0,121,49,17185,77,17190,7
2016-10-20 12:51:00,12:51:30,12:51:30,43311,43311,17185.0,109,17190.0,51,17185.0,17185.0,17185.0,17185.0,1,-1,17185,108,17190,53
2016-10-20 12:52:00,12:52:00,12:52:27,43323,43357,17185.0,109,17190.0,56,17190.0,17190.0,17185.0,17190.0,29,25,17185,107,17190,23
2016-10-20 12:53:00,12:53:06,12:53:30,43377,43419,17185.0,103,17190.0,28,17185.0,17190.0,17185.0,17190.0,16,10,17190,74,17195,64
2016-10-20 12:54:00,12:54:25,12:54:26,43460,43470,17190.0,72,17195.0,66,17195.0,17195.0,17195.0,17195.0,11,11,17190,77,17195,53
2016-10-20 12:55:00,12:55:02,12:55:55,43504,43567,17190.0,102,17195.0,48,17190.0,17190.0,17190.0,17190.0,13,-13,17190,68,17195,84
2016-10-20 12:56:00,12:56:05,12:56:18,43582,43621,17190.0,71,17195.0,80,17190.0,17190.0,17185.0,17190.0,75,-55,17185,59,17190,76
2016-10-20 12:57:00,12:57:09,12:57:49,43644,43786,17185.0,87,17190.0,70,17185.0,17185.0,17180.0,17180.0,215,-149,17180,12,17185,62
2016-10-20 12:58:00,12:58:00,12:58:18,43792,43810,17180.0,16,17185.0,62,17180.0,17180.0,17180.0,17180.0,7,-7,17180,14,17185,62
2016-10-20 12:59:00,12:59:08,12:59:43,43838,43855,17180.0,46,17185.0,55,17180.0,17180.0,17180.0,17180.0,3,-3,17180,37,17185,63
2016-10-20 13:00:00,13:00:03,13:00:46,43861,43930,17180.0,39,17185.0,67,17180.0,17185.0,17180.0,17180.0,67,-43,17180,49,17185,102
2016-10-20 13:01:00,13:01:02,13:01:49,43946,44047,17180.0,123,17185.0,106,17180.0,17185.0,17180.0,17185.0,110,82,17180,162,17185,14
2016-10-20 13:02:00,13:02:08,13:02:28,44063,44085,17180.0,162,17185.0,17,17185.0,17185.0,17180.0,17185.0,3,1,17180,163,17185,19
2016-10-20 13:03:00,13:03:04,13:03:58,44118,44165,17180.0,162,17185.0,35,17180.0,17180.0,17180.0,17180.0,24,-24,17180,13,17185,70
2016-10-20 13:04:00,13:04:06,13:04:57,44173,44270,17180.0,16,17185.0,71,17180.0,17180.0,17180.0,17180.0,82,8,17180,39,17185,66
2016-10-20 13:05:00,13:05:01,13:05:59,44274,44464,17180.0,51,17185.0,66,17185.0,17185.0,17175.0,17180.0,194,-56,17180,23,17185,67
2016-10-20 13:06:00,13:06:23,13:06:28,44480,44501,17180.0,8,17185.0,80,17180.0,17180.0,17180.0,17180.0,22,-22,17180,6,17185,68
2016-10-20 13:07:00,13:07:08,13:07:32,44528,44576,17180.0,47,17185.0,64,17185.0,17185.0,17180.0,17180.0,42,-40,17175,40,17180,37
2016-10-20 13:08:00,13:08:06,13:08:56,44598,44660,17175.0,40,17180.0,56,17175.0,17175.0,17170.0,17170.0,39,-37,17170,23,17175,59
2016-10-20 13:09:00,13:09:02,13:09:53,44666,44796,17170.0,24,17175.0,60,17170.0,17180.0,17170.0,17180.0,107,95,17175,34,17180,47
2016-10-20 13:10:00,13:10:20,13:10:59,44807,44849,17175.0,43,17180.0,49,17175.0,17180.0,17175.0,17180.0,7,1,17175,23,17180,64
2016-10-20 13:11:00,13:11:00,13:11:32,44857,44902,17175.0,32,17180.0,62,17180.0,17180.0,17175.0,17180.0,15,-11,17175,55,17180,43
2016-10-20 13:12:00,13:12:01,13:12:56,44915,44986,17175.0,48,17180.0,44,17180.0,17180.0,17175.0,17175.0,26,-16,17175,43,17180,55
2016-10-20 13:13:00,13:13:05,13:13:47,44997,45146,17175.0,40,17180.0,60,17175.0,17185.0,17175.0,17180.0,122,74,17180,90,17185,50
2016-10-20 13:14:00,13:14:07,13:14:58,45161,45349,17180.0,87,17185.0,52,17180.0,17185.0,17170.0,17180.0,255,5,17175,50,17180,16
2016-10-20 13:15:00,13:15:05,13:15:59,45359,45565,17175.0,48,17180.0,39,17180.0,17185.0,17175.0,17180.0,231,201,17180,81,17185,14
2016-10-20 13:16:00,13:16:09,13:16:59,45579,45636,17180.0,81,17185.0,30,17180.0,17185.0,17180.0,17185.0,37,21,17180,68,17185,1
2016-10-20 13:17:00,13:17:00,13:17:57,45639,45790,17180.0,68,17185.0,1,17185.0,17185.0,17180.0,17185.0,199,-5,17185,34,17190,68
2016-10-20 13:18:00,13:18:03,13:18:57,45810,45977,17185.0,80,17190.0,53,17190.0,17195.0,17185.0,17190.0,242,130,17190,55,17195,85
2016-10-20 13:19:00,13:19:07,13:19:59,45988,46091,17190.0,56,17195.0,85,17190.0,17195.0,17190.0,17195.0,74,-64,17190,24,17195,71
2016-10-20 13:20:00,13:20:04,13:20:59,46100,46165,17190.0,47,17195.0,69,17190.0,17195.0,17190.0,17190.0,26,-8,17190,82,17195,97
2016-10-20 13:21:00,13:21:05,13:21:59,46171,46236,17190.0,92,17195.0,97,17190.0,17195.0,17190.0,17195.0,21,-3,17190,99,17195,93
2016-10-20 13:22:00,13:22:00,13:22:51,46240,46434,17190.0,101,17195.0,93,17190.0,17195.0,17190.0,17190.0,307,-215,17190,33,17195,84
2016-10-20 13:23:00,13:23:05,13:23:51,46445,46505,17190.0,36,17195.0,88,17195.0,17195.0,17190.0,17190.0,12,-8,17190,45,17195,85
2016-10-20 13:24:00,13:24:01,13:24:57,46509,46658,17190.0,46,17195.0,85,17190.0,17195.0,17190.0,17190.0,152,-42,17190,5,17195,82
2016-10-20 13:25:00,13:25:02,13:25:55,46666,46756,17190.0,13,17195.0,80,17190.0,17195.0,17190.0,17190.0,37,-17,17190,53,17195,55
2016-10-20 13:26:00,13:26:01,13:26:56,46766,46940,17190.0,53,17195.0,68,17190.0,17200.0,17190.0,17195.0,155,101,17195,46,17200,66
2016-10-20 13:27:00,13:27:04,13:27:57,46957,47169,17195.0,51,17200.0,61,17200.0,17200.0,17190.0,17195.0,329,-47,17195,69,17200,47
2016-10-20 13:28:00,13:28:07,13:28:59,47184,47260,17195.0,65,17200.0,51,17195.0,17200.0,17195.0,17195.0,82,-34,17190,54,17195,34
2016-10-20 13:29:00,13:29:01,13:29:59,47267,47434,17190.0,52,17195.0,29,17195.0,17200.0,17190.0,17200.0,161,127,17195,61,17200,2
2016-10-20 13:30:00,13:30:01,13:30:51,47440,47620,17195.0,63,17200.0,9,17200.0,17205.0,17200.0,17200.0,186,80,17200,62,17205,43
2016-10-20 13:31:00,13:31:05,13:31:53,47641,47681,17200.0,47,17205.0,42,17205.0,17205.0,17200.0,17200.0,10,-6,17200,49,17205,42
2016-10-20 13:32:00,13:32:01,13:32:59,47701,47890,17200.0,52,17205.0,38,17205.0,17210.0,17200.0,17210.0,162,136,17205,32,17210,92
2016-10-20 13:33:00,13:33:06,13:33:45,47903,48047,17205.0,39,17210.0,93,17205.0,17205.0,17195.0,17200.0,152,-56,17195,67,17200,25
2016-10-20 13:34:00,13:34:17,13:34:49,48068,48120,17195.0,63,17200.0,43,17200.0,17200.0,17195.0,17200.0,28,18,17195,60,17200,40
2016-10-20 13:35:00,13:35:04,13:35:53,48136,48231,17195.0,61,17200.0,33,17195.0,17200.0,17195.0,17200.0,20,16,17195,58,17200,39
2016-10-20 13:36:00,13:36:06,13:36:57,48248,48359,17195.0,59,17200.0,38,17195.0,17205.0,17195.0,17205.0,63,57,17200,93,17205,59
2016-10-20 13:37:00,13:37:01,13:37:59,48366,48449,17200.0,90,17205.0,59,17205.0,17210.0,17205.0,17210.0,68,68,17205,61,17210,67
2016-10-20 13:38:00,13:38:01,13:38:54,48456,48540,17205.0,63,17210.0,71,17210.0,17210.0,17205.0,17205.0,22,4,17205,43,17210,78
2016-10-20 13:39:00,13:39:03,13:39:15,48543,48578,17205.0,43,17210.0,78,17205.0,17210.0,17205.0,17205.0,47,-43,17200,73,17205,41
2016-10-20 13:40:00,13:40:09,13:40:31,48650,48712,17200.0,61,17205.0,67,17205.0,17205.0,17200.0,17205.0,41,35,17200,71,17205,3
2016-10-20 13:41:00,13:41:13,13:41:45,48762,48795,17200.0,56,17205.0,64,17205.0,17205.0,17205.0,17205.0,2,2,17200,80,17205,70
2016-10-20 13:42:00,13:42:02,13:42:56,48819,48956,17200.0,84,17205.0,66,17200.0,17205.0,17200.0,17200.0,100,54,17200,76,17205,25
2016-10-20 13:43:00,13:43:01,13:43:59,48962,49076,17200.0,75,17205.0,33,17205.0,17205.0,17200.0,17205.0,44,20,17200,69,17205,79
2016-10-20 13:44:00,13:44:07,13:44:58,49093,49163,17200.0,69,17205.0,79,17200.0,17205.0,17200.0,17200.0,25,-3,17200,63,17205,77
2016-10-20 13:45:00,13:45:10,13:45:57,49184,49441,17200.0,57,17205.0,81,17200.0,17200.0,17195.0,17200.0,364,99,17195,80,17200,10
2016-10-20 13:46:00,13:46:01,13:46:58,49447,49623,17195.0,86,17200.0,11,17200.0,17205.0,17200.0,17205.0,172,78,17205,78,17210,72
2016-10-20 13:47:00,13:47:20,13:47:59,49637,49816,17205.0,77,17210.0,78,17205.0,17215.0,17205.0,17215.0,301,203,17215,96,17220,84
2016-10-20 13:48:00,13:48:00,13:48:58,49819,50164,17215.0,96,17220.0,84,17215.0,17225.0,17215.0,17215.0,575,-9,17215,68,17220,76
2016-10-20 13:49:00,13:49:02,13:49:57,50166,50381,17215.0,69,17220.0,76,17215.0,17220.0,17210.0,17210.0,289,55,17210,101,17215,56
2016-10-20 13:50:00,13:50:00,13:50:59,50386,50684,17210.0,102,17215.0,58,17215.0,17220.0,17210.0,17215.0,564,-4,17210,87,17215,62
2016-10-20 13:51:00,13:51:02,13:51:56,50692,50912,17210.0,113,17215.0,72,17210.0,17215.0,17210.0,17210.0,373,-81,17210,55,17215,116
2016-10-20 13:52:00,13:52:02,13:52:59,50925,51093,17210.0,55,17215.0,118,17210.0,17210.0,17205.0,17210.0,142,-142,17210,38,17215,107
2016-10-20 13:53:00,13:53:05,13:53:58,51100,51209,17210.0,30,17215.0,112,17210.0,17215.0,17210.0,17215.0,93,-47,17210,51,17215,92
2016-10-20 13:54:00,13:54:03,13:54:57,51216,51314,17210.0,47,17215.0,93,17210.0,17215.0,17210.0,17210.0,31,-23,17210,74,17215,104
2016-10-20 13:55:00,13:55:00,13:55:59,51319,51506,17210.0,79,17215.0,102,17215.0,17215.0,17210.0,17210.0,190,-84,17205,116,17210,9
2016-10-20 13:56:00,13:56:00,13:56:58,51507,51769,17210.0,12,17215.0,102,17205.0,17215.0,17205.0,17215.0,335,157,17210,121,17215,10
2016-10-20 13:57:00,13:57:00,13:57:58,51773,51933,17210.0,121,17215.0,11,17215.0,17220.0,17210.0,17215.0,91,-19,17210,99,17215,100
2016-10-20 13:58:00,13:58:00,13:58:58,51937,52238,17210.0,99,17215.0,97,17210.0,17220.0,17210.0,17215.0,533,61,17210,104,17220,200
2016-10-20 13:59:00,13:59:02,13:59:59,52250,52655,17210.0,106,17215.0,79,17210.0,17225.0,17210.0,17220.0,610,162,17220,16,17225,200
2016-10-20 14:00:00,14:00:00,14:00:58,52656,53488,17220.0,13,17225.0,219,17220.0,17225.0,17210.0,17215.0,1540,80,17210,111,17215,86
2016-10-20 14:01:00,14:01:00,14:01:57,53494,53782,17210.0,142,17215.0,94,17210.0,17220.0,17210.0,17215.0,607,501,17215,235,17220,165
2016-10-20 14:02:00,14:02:00,14:02:59,53785,53980,17215.0,235,17220.0,165,17220.0,17220.0,17215.0,17220.0,278,46,17215,145,17220,196
2016-10-20 14:03:00,14:03:00,14:03:59,53984,54222,17215.0,144,17220.0,196,17220.0,17225.0,17215.0,17220.0,428,116,17220,249,17225,225
2016-10-20 14:04:00,14:04:00,14:04:59,54225,54487,17220.0,249,17225.0,225,17225.0,17225.0,17215.0,17215.0,700,-364,17215,8,17220,170
2016-10-20 14:05:00,14:05:01,14:05:56,54495,54745,17215.0,47,17220.0,171,17215.0,17215.0,17205.0,17205.0,277,-67,17205,154,17210,113
2016-10-20 14:06:00,14:06:02,14:06:56,54758,54993,17205.0,153,17210.0,127,17205.0,17210.0,17200.0,17205.0,371,-49,17200,218,17205,72
2016-10-20 14:07:00,14:07:00,14:07:59,55000,55327,17200.0,209,17205.0,75,17200.0,17210.0,17195.0,17205.0,578,280,17200,149,17205,7
2016-10-20 14:08:00,14:08:01,14:08:58,55330,55527,17200.0,149,17205.0,7,17200.0,17205.0,17195.0,17195.0,267,-117,17195,22,17200,202
