,ST,ET,sidx,eidx,bB,bBS,bA,bAS,O,H,L,C,V,OF,eB,eBS,eA,eAS
2016-09-09 08:00:00,08:00:00,08:00:58,2109,2957,16865.0,35,16870.0,23,16865.0,16885.0,16845.0,16875.0,1367,223,16875,10,16880,35
2016-09-09 08:01:00,08:01:00,08:01:57,2966,3263,16875.0,30,16880.0,11,16880.0,16880.0,16865.0,16870.0,440,-90,16865,31,16870,18
2016-09-09 08:02:00,08:02:00,08:02:56,3269,3487,16865.0,32,16870.0,23,16870.0,16875.0,16865.0,16870.0,291,189,16865,21,16870,28
2016-09-09 08:03:00,08:03:01,08:03:56,3496,3669,16865.0,33,16870.0,27,16865.0,16870.0,16860.0,16870.0,132,42,16865,42,16870,26
2016-09-09 08:04:00,08:04:03,08:04:59,3680,3792,16865.0,43,16870.0,25,16870.0,16870.0,16860.0,16865.0,74,-46,16860,35,16865,22
2016-09-09 08:05:00,08:05:06,08:05:55,3808,4060,16860.0,35,16865.0,11,16865.0,16880.0,16865.0,16880.0,324,262,16875,31,16880,18
2016-09-09 08:06:00,08:06:02,08:06:59,4068,4381,16875.0,32,16880.0,21,16880.0,16890.0,16880.0,16890.0,378,0,16885,46,16890,10
2016-09-09 08:07:00,08:07:21,08:07:54,4414,4558,16885.0,35,16890.0,29,16885.0,16890.0,16885.0,16885.0,156,16,16885,50,16890,17
2016-09-09 08:08:00,08:08:05,08:08:53,4577,4791,16885.0,51,16890.0,26,16885.0,16885.0,16870.0,16870.0,292,-250,16865,61,16870,12
2016-09-09 08:09:00,08:09:00,08:09:51,4805,4962,16865.0,72,16870.0,23,16870.0,16870.0,16870.0,16870.0,153,-3,16865,79,16870,1
2016-09-09 08:10:00,08:10:06,08:10:56,4975,5146,16865.0,79,16870.0,20,16865.0,16865.0,16855.0,16860.0,168,-110,16855,33,16860,37
2016-09-09 08:11:00,08:11:07,08:11:50,5168,5282,16855.0,50,16860.0,49,16855.0,16860.0,16855.0,16855.0,57,-29,16855,14,16860,75
2016-09-09 08:12:00,08:12:00,08:12:53,5307,5556,16855.0,15,16860.0,83,16855.0,16855.0,16850.0,16855.0,226,-76,16850,42,16855,14
2016-09-09 08:13:00,08:13:04,08:13:52,5566,5753,16850.0,40,16855.0,18,16850.0,16855.0,16850.0,16855.0,172,-144,16850,39,16855,20
2016-09-09 08:14:00,08:14:10,08:14:42,5785,5913,16850.0,21,16855.0,60,16850.0,16860.0,16850.0,16855.0,160,-118,16855,46,16860,38
2016-09-09 08:15:00,08:15:02,08:15:55,5934,6044,16855.0,17,16860.0,36,16855.0,16860.0,16855.0,16860.0,53,-5,16860,14,16865,33
2016-09-09 08:16:00,08:16:00,08:16:59,6054,6243,16860.0,26,16865.0,33,16860.0,16860.0,16850.0,16855.0,238,-204,16855,23,16860,34
2016-09-09 08:17:00,08:17:00,08:17:27,6248,6374,16855.0,22,16860.0,35,16855.0,16855.0,16855.0,16855.0,137,-73,16850,37,16855,34
2016-09-09 08:18:00,08:18:11,08:18:53,6416,6555,16850.0,42,16855.0,73,16850.0,16850.0,16845.0,16845.0,136,-112,16845,16,16850,53
2016-09-09 08:19:00,08:19:02,08:19:46,6573,6791,16845.0,26,16850.0,55,16845.0,16850.0,16845.0,16850.0,239,-47,16845,34,16850,21
2016-09-09 08:20:00,08:20:11,08:20:55,6813,7090,16845.0,21,16850.0,34,16845.0,16850.0,16835.0,16840.0,363,-64,16835,41,16840,36
2016-09-09 08:21:00,08:21:02,08:21:52,7107,7379,16835.0,28,16840.0,46,16835.0,16835.0,16825.0,16825.0,441,-226,16825,20,16830,37
2016-09-09 08:22:00,08:22:00,08:22:54,7389,7607,16825.0,20,16830.0,39,16830.0,16845.0,16830.0,16845.0,179,159,16845,16,16850,33
2016-09-09 08:23:00,08:23:02,08:23:59,7616,7734,16845.0,10,16850.0,48,16845.0,16845.0,16835.0,16835.0,100,-90,16835,12,16840,69
2016-09-09 08:24:00,08:24:42,08:24:42,7776,7805,16835.0,59,16840.0,68,16835.0,16835.0,16835.0,16835.0,75,-75,16830,60,16835,16
2016-09-09 08:25:00,08:25:07,08:25:50,7847,7955,16830.0,42,16835.0,60,16830.0,16835.0,16830.0,16830.0,114,12,16830,16,16835,46
2016-09-09 08:26:00,08:26:10,08:26:58,7972,8030,16830.0,16,16835.0,56,16830.0,16830.0,16830.0,16830.0,21,-21,16830,32,16835,50
2016-09-09 08:27:00,08:27:08,08:27:58,8042,8184,16830.0,32,16835.0,51,16830.0,16835.0,16830.0,16835.0,223,25,16835,18,16840,58
2016-09-09 08:28:00,08:28:00,08:28:18,8185,8242,16830.0,66,16835.0,10,16835.0,16835.0,16835.0,16835.0,43,27,16830,66,16835,6
2016-09-09 08:29:00,08:29:01,08:29:37,8268,8347,16830.0,63,16835.0,19,16835.0,16840.0,16835.0,16840.0,98,98,16835,59,16840,43
2016-09-09 08:30:00,08:30:00,08:30:48,8366,8535,16835.0,56,16840.0,48,16835.0,16850.0,16835.0,16845.0,197,64,16840,35,16845,23
2016-09-09 08:31:00,08:31:04,08:31:51,8556,8693,16840.0,25,16845.0,35,16840.0,16840.0,16835.0,16835.0,130,-111,16835,18,16840,42
2016-09-09 08:32:00,08:32:12,08:32:53,8712,8851,16835.0,31,16840.0,43,16840.0,16845.0,16840.0,16845.0,164,88,16840,47,16845,29
2016-09-09 08:33:00,08:33:05,08:33:57,8862,8968,16840.0,44,16845.0,33,16840.0,16845.0,16840.0,16845.0,96,29,16845,7,16850,61
2016-09-09 08:34:00,08:34:44,08:34:44,8993,8993,16845.0,35,16850.0,49,16845.0,16845.0,16845.0,16845.0,1,-1,16845,26,16850,50
2016-09-09 08:35:00,08:35:03,08:35:54,9008,9054,16845.0,27,16850.0,53,16850.0,16850.0,16845.0,16845.0,16,-14,16845,17,16850,56
2016-09-09 08:36:00,08:36:02,08:36:55,9065,9163,16845.0,22,16850.0,64,16845.0,16845.0,16845.0,16845.0,81,32,16845,1,16850,68
2016-09-09 08:37:00,08:37:03,08:37:39,9178,9261,16845.0,12,16850.0,70,16845.0,16845.0,16845.0,16845.0,72,0,16840,116,16845,27
2016-09-09 08:38:00,08:38:17,08:38:53,9316,9340,16840.0,129,16845.0,61,16845.0,16845.0,16840.0,16840.0,15,7,16840,128,16845,44
2016-09-09 08:39:00,08:39:02,08:39:58,9347,9515,16840.0,128,16845.0,44,16845.0,16845.0,16835.0,16840.0,229,-77,16835,39,16840,28
2016-09-09 08:40:00,08:40:00,08:40:00,0,0,0.0,0,0.0,0,16840.0,16840.0,16840.0,16840.0,0,0,0,0,0,0
2016-09-09 08:41:00,08:41:02,08:41:59,9564,9664,16835.0,51,16840.0,39,16835.0,16845.0,16835.0,16840.0,72,4,16840,30,16845,66
2016-09-09 08:42:00,08:42:05,08:42:57,9672,9733,16840.0,24,16845.0,66,16840.0,16840.0,16835.0,16835.0,46,-32,16835,22,16840,53
2016-09-09 08:43:00,08:43:01,08:43:44,9744,9757,16835.0,34,16840.0,30,16840.0,16840.0,16835.0,16835.0,2,0,16835,42,16840,47
2016-09-09 08:44:00,08:44:08,08:44:59,9769,10064,16835.0,42,16840.0,47,16840.0,16840.0,16815.0,16815.0,581,-214,16810,67,16815,6
2016-09-09 08:45:00,08:45:01,08:45:59,10069,10660,16810.0,67,16815.0,27,16810.0,16815.0,16790.0,16800.0,937,-161,16795,40,16800,5
2016-09-09 08:46:00,08:46:01,08:46:59,10668,10999,16795.0,34,16800.0,23,16795.0,16800.0,16790.0,16795.0,486,-266,16795,63,16800,27
2016-09-09 08:47:00,08:47:00,08:47:34,11003,11143,16795.0,63,16800.0,35,16795.0,16800.0,16795.0,16800.0,131,17,16800,14,16805,65
2016-09-09 08:48:00,08:48:04,08:48:59,11203,11396,16800.0,60,16805.0,63,16805.0,16810.0,16795.0,16800.0,225,65,16800,38,16805,31
2016-09-09 08:49:00,08:49:01,08:49:57,11405,11563,16800.0,27,16805.0,43,16805.0,16805.0,16800.0,16800.0,130,-68,16800,18,16805,42
2016-09-09 08:50:00,08:50:12,08:50:58,11588,11842,16800.0,40,16805.0,58,16805.0,16805.0,16780.0,16790.0,383,-45,16790,50,16795,44
2016-09-09 08:51:00,08:51:00,08:51:58,11848,12096,16790.0,43,16795.0,64,16790.0,16790.0,16780.0,16785.0,338,-196,16785,14,16790,55
2016-09-09 08:52:00,08:52:03,08:52:56,12103,12321,16785.0,25,16790.0,54,16790.0,16790.0,16785.0,16785.0,250,32,16785,8,16790,48
2016-09-09 08:53:00,08:53:00,08:53:56,12330,12668,16785.0,6,16790.0,49,16785.0,16790.0,16780.0,16780.0,466,-18,16780,12,16785,51
2016-09-09 08:54:00,08:54:01,08:54:27,12678,12814,16780.0,32,16785.0,53,16780.0,16780.0,16780.0,16780.0,183,15,16775,50,16780,24
2016-09-09 08:55:00,08:55:08,08:55:59,12867,13035,16775.0,56,16780.0,29,16775.0,16785.0,16775.0,16780.0,273,213,16775,56,16780,15
2016-09-09 08:56:00,08:56:30,08:56:53,13068,13105,16775.0,93,16780.0,25,16775.0,16780.0,16775.0,16780.0,30,20,16775,62,16780,74
2016-09-09 08:57:00,08:57:01,08:57:55,13110,13268,16775.0,60,16780.0,76,16780.0,16785.0,16775.0,16785.0,354,-26,16785,1,16790,88
2016-09-09 08:58:00,08:58:01,08:58:53,13280,13421,16785.0,48,16790.0,60,16790.0,16795.0,16790.0,16790.0,171,31,16785,31,16790,25
2016-09-09 08:59:00,08:59:04,08:59:41,13446,13534,16785.0,30,16790.0,42,16790.0,16790.0,16785.0,16790.0,55,9,16785,55,16790,43
2016-09-09 09:00:00,09:00:02,09:00:59,13562,13764,16785.0,51,16790.0,48,16785.0,16785.0,16775.0,16775.0,227,-117,16775,10,16780,56
2016-09-09 09:01:00,09:01:01,09:01:50,13766,13961,16775.0,10,16780.0,60,16775.0,16780.0,16775.0,16780.0,250,132,16780,42,16785,22
2016-09-09 09:02:00,09:02:01,09:02:56,13977,14065,16780.0,45,16785.0,17,16780.0,16785.0,16780.0,16785.0,15,7,16780,49,16785,33
2016-09-09 09:03:00,09:03:00,09:03:52,14070,14217,16780.0,51,16785.0,27,16780.0,16785.0,16780.0,16780.0,112,78,16780,49,16785,42
2016-09-09 09:04:00,09:04:02,09:04:58,14226,14290,16780.0,57,16785.0,36,16785.0,16785.0,16780.0,16785.0,35,23,16780,29,16785,53
2016-09-09 09:05:00,09:05:00,09:05:53,14294,14454,16780.0,29,16785.0,48,16780.0,16780.0,16775.0,16775.0,164,-64,16770,64,16780,111
2016-09-09 09:06:00,09:06:05,09:06:59,14475,14581,16775.0,9,16780.0,126,16775.0,16775.0,16770.0,16770.0,29,-23,16770,60,16775,105
2016-09-09 09:07:00,09:07:04,09:07:55,14584,14700,16770.0,60,16775.0,105,16770.0,16775.0,16770.0,16775.0,178,114,16775,28,16780,103
2016-09-09 09:08:00,09:08:00,09:08:56,14703,14809,16775.0,28,16780.0,103,16775.0,16780.0,16770.0,16770.0,94,22,16770,29,16775,35
2016-09-09 09:09:00,09:09:03,09:09:56,14818,14899,16770.0,40,16775.0,31,16770.0,16775.0,16770.0,16770.0,35,-5,16770,49,16775,52
2016-09-09 09:10:00,09:10:02,09:10:59,14904,15111,16770.0,49,16775.0,55,16770.0,16775.0,16760.0,16765.0,202,-168,16760,56,16765,3
2016-09-09 09:11:00,09:11:00,09:11:58,15113,15522,16760.0,56,16770.0,68,16765.0,16795.0,16760.0,16790.0,704,358,16785,50,16795,73
2016-09-09 09:12:00,09:12:00,09:12:58,15528,15704,16785.0,53,16795.0,74,16790.0,16795.0,16785.0,16790.0,140,-45,16785,52,16795,44
2016-09-09 09:13:00,09:13:16,09:13:44,15727,15829,16790.0,16,16795.0,55,16790.0,16790.0,16790.0,16790.0,106,-4,16790,4,16795,47
2016-09-09 09:14:00,09:14:02,09:14:58,15838,16018,16790.0,5,16795.0,48,16790.0,16795.0,16785.0,16795.0,208,4,16790,41,16795,27
2016-09-09 09:15:00,09:15:00,09:15:49,16021,16110,16790.0,41,16795.0,27,16790.0,16790.0,16790.0,16790.0,89,-89,16785,20,16790,38
2016-09-09 09:16:00,09:16:01,09:16:50,16123,16215,16785.0,25,16790.0,55,16790.0,16790.0,16780.0,16780.0,63,13,16780,19,16785,43
2016-09-09 09:17:00,09:17:03,09:17:44,16241,16286,16780.0,31,16785.0,38,16780.0,16785.0,16780.0,16785.0,14,2,16785,14,16790,36
2016-09-09 09:18:00,09:18:05,09:18:54,16308,16389,16785.0,26,16790.0,38,16790.0,16790.0,16780.0,16785.0,35,-21,16785,8,16790,43
2016-09-09 09:19:00,09:19:02,09:19:59,16404,16520,16785.0,8,16790.0,58,16785.0,16785.0,16780.0,16780.0,77,-71,16780,37,16785,30
2016-09-09 09:20:00,09:20:06,09:20:59,16529,16733,16780.0,34,16785.0,33,16780.0,16785.0,16775.0,16785.0,194,-166,16775,34,16785,40
2016-09-09 09:21:00,09:21:00,09:21:36,16734,16812,16780.0,82,16785.0,33,16780.0,16785.0,16780.0,16785.0,116,-68,16785,5,16790,54
2016-09-09 09:22:00,09:22:00,09:22:53,16825,16974,16785.0,3,16790.0,56,16785.0,16790.0,16785.0,16790.0,139,24,16790,6,16795,54
2016-09-09 09:23:00,09:23:01,09:23:30,16991,17042,16790.0,5,16795.0,50,16790.0,16790.0,16790.0,16790.0,54,14,16790,27,16795,50
2016-09-09 09:24:00,09:24:32,09:24:36,17089,17125,16790.0,20,16795.0,46,16790.0,16790.0,16790.0,16790.0,55,-55,16790,17,16795,44
2016-09-09 09:25:00,09:25:10,09:25:59,17164,17201,16790.0,37,16795.0,40,16790.0,16790.0,16790.0,16790.0,11,-11,16790,8,16795,42
2016-09-09 09:26:00,09:26:01,09:26:59,17207,17325,16790.0,13,16795.0,45,16790.0,16790.0,16785.0,16785.0,129,-51,16785,29,16790,20
2016-09-09 09:27:00,09:27:06,09:27:09,17334,17351,16785.0,29,16790.0,17,16790.0,16790.0,16790.0,16790.0,27,27,16790,1,16795,42
2016-09-09 09:28:00,09:28:55,09:28:55,17399,17400,16790.0,43,16795.0,32,16795.0,16795.0,16795.0,16795.0,9,9,16790,36,16795,23
2016-09-09 09:29:00,09:29:00,09:29:56,17405,17530,16790.0,35,16795.0,27,16795.0,16800.0,16795.0,16795.0,97,65,16795,2,16800,30
2016-09-09 09:30:00,09:30:01,09:30:31,17539,17579,16790.0,22,16795.0,7,16795.0,16800.0,16795.0,16800.0,15,11,16800,19,16805,16
2016-09-09 09:31:00,09:31:00,09:31:48,17619,17816,16800.0,36,16805.0,15,16805.0,16805.0,16795.0,16800.0,227,41,16800,3,16805,39
2016-09-09 09:32:00,09:32:38,09:32:53,17861,17890,16800.0,53,16805.0,17,16805.0,16805.0,16805.0,16805.0,32,23,16800,49,16805,1
2016-09-09 09:33:00,09:33:22,09:33:23,17937,17947,16800.0,52,16805.0,5,16805.0,16805.0,16805.0,16805.0,12,-2,16805,4,16810,47
2016-09-09 09:34:00,09:34:24,09:34:45,18022,18097,16805.0,76,16810.0,29,16810.0,16810.0,16810.0,16810.0,102,96,16805,88,16810,2
2016-09-09 09:35:00,09:35:30,09:35:53,18150,18203,16805.0,92,16810.0,16,16810.0,16810.0,16810.0,16810.0,23,7,16805,75,16810,76
2016-09-09 09:36:00,09:36:15,09:36:52,18221,18263,16805.0,97,16810.0,74,16810.0,16810.0,16810.0,16810.0,25,25,16805,96,16810,50
2016-09-09 09:37:00,09:37:02,09:37:59,18273,18363,16805.0,97,16810.0,49,16810.0,16810.0,16805.0,16805.0,157,-43,16805,12,16810,40
2016-09-09 09:38:00,09:38:52,09:38:52,18403,18414,16805.0,30,16810.0,49,16805.0,16805.0,16805.0,16805.0,30,-30,16800,68,16805,49
2016-09-09 09:39:00,09:39:34,09:39:34,18463,18466,16800.0,75,16805.0,34,16800.0,16800.0,16800.0,16800.0,4,-4,16800,67,16805,37
2016-09-09 09:40:00,09:40:06,09:40:06,18517,18517,16800.0,64,16805.0,36,16805.0,16805.0,16805.0,16805.0,1,1,16800,61,16805,33
2016-09-09 09:41:00,09:41:08,09:41:40,18614,18667,16800.0,60,16805.0,37,16805.0,16805.0,16800.0,16805.0,43,23,16805,49,16810,27
2016-09-09 09:42:00,09:42:02,09:42:59,18698,18808,16805.0,32,16810.0,42,16805.0,16805.0,16795.0,16800.0,115,-29,16800,8,16805,52
2016-09-09 09:43:00,09:43:28,09:43:59,18845,18898,16800.0,31,16805.0,42,16800.0,16800.0,16800.0,16800.0,28,-28,16800,30,16805,43
2016-09-09 09:44:00,09:44:01,09:44:57,18905,19019,16800.0,21,16805.0,49,16800.0,16800.0,16790.0,16795.0,151,-135,16795,18,16800,48
2016-09-09 09:45:00,09:45:06,09:45:43,19031,19080,16795.0,24,16800.0,50,16795.0,16795.0,16795.0,16795.0,19,-19,16795,8,16800,51
2016-09-09 09:46:00,09:46:09,09:46:54,19089,19139,16795.0,8,16800.0,54,16795.0,16795.0,16790.0,16790.0,12,-8,16790,15,16795,49
2016-09-09 09:47:00,09:47:05,09:47:53,19144,19245,16790.0,11,16795.0,50,16790.0,16795.0,16790.0,16790.0,103,-101,16790,5,16795,51
2016-09-09 09:48:00,09:48:24,09:48:24,19282,19285,16790.0,26,16795.0,58,16790.0,16790.0,16790.0,16790.0,9,-9,16790,14,16795,61
2016-09-09 09:49:00,09:49:01,09:49:50,19305,19423,16790.0,20,16795.0,61,16795.0,16795.0,16790.0,16790.0,89,-23,16790,6,16795,52
2016-09-09 09:50:00,09:50:01,09:50:58,19430,19525,16790.0,8,16795.0,52,16790.0,16790.0,16790.0,16790.0,57,7,16790,6,16795,53
2016-09-09 09:51:00,09:51:41,09:51:55,19570,19612,16790.0,41,16795.0,44,16795.0,16795.0,16790.0,16790.0,41,25,16790,19,16795,40
2016-09-09 09:52:00,09:52:00,09:52:00,0,0,0.0,0,0.0,0,16790.0,16790.0,16790.0,16790.0,0,0,0,0,0,0
2016-09-09 09:53:00,09:53:04,09:53:47,19678,19715,16790.0,36,16795.0,40,16795.0,16795.0,16790.0,16790.0,30,-26,16790,8,16795,46
2016-09-09 09:54:00,09:54:17,09:54:40,19743,19834,16790.0,36,16795.0,34,16795.0,16795.0,16795.0,16795.0,118,110,16795,1,16800,59
2016-09-09 09:55:00,09:55:01,09:55:09,19861,19907,16795.0,38,16800.0,28,16800.0,16805.0,16800.0,16800.0,57,-5,16795,23,16800,38
2016-09-09 09:56:00,09:56:03,09:56:34,19957,20037,16795.0,32,16800.0,33,16795.0,16795.0,16795.0,16795.0,45,-45,16790,88,16795,7
2016-09-09 09:57:00,09:57:00,09:57:00,0,0,0.0,0,0.0,0,16795.0,16795.0,16795.0,16795.0,0,0,0,0,0,0
2016-09-09 09:58:00,09:58:05,09:58:57,20078,20169,16790.0,86,16795.0,40,16795.0,16795.0,16785.0,16785.0,86,-82,16785,10,16790,69
2016-09-09 09:59:00,09:59:02,09:59:59,20173,20316,16785.0,9,16790.0,69,16785.0,16790.0,16785.0,16785.0,167,-17,16785,42,16790,25
2016-09-09 10:00:00,10:00:12,10:00:53,20339,20387,16785.0,22,16790.0,47,16785.0,16790.0,16785.0,16785.0,22,-16,16785,35,16790,30
2016-09-09 10:01:00,10:01:09,10:01:58,20405,20477,16785.0,42,16790.0,21,16785.0,16790.0,16785.0,16790.0,52,-50,16785,44,16790,15
2016-09-09 10:02:00,10:02:12,10:02:51,20489,20556,16785.0,47,16790.0,22,16785.0,16790.0,16780.0,16790.0,53,-37,16785,23,16790,55
2016-09-09 10:03:00,10:03:06,10:03:57,20567,20627,16785.0,32,16790.0,57,16785.0,16790.0,16785.0,16785.0,33,-29,16780,46,16785,14
2016-09-09 10:04:00,10:04:02,10:04:56,20638,20743,16780.0,42,16785.0,24,16780.0,16785.0,16780.0,16785.0,91,13,16780,47,16785,4
2016-09-09 10:05:00,10:05:04,10:05:42,20756,20822,16780.0,45,16785.0,17,16785.0,16785.0,16785.0,16785.0,39,37,16785,49,16790,46
2016-09-09 10:06:00,10:06:19,10:06:56,20841,20931,16785.0,54,16790.0,29,16785.0,16785.0,16785.0,16785.0,154,-152,16780,38,16785,28
2016-09-09 10:07:00,10:07:11,10:07:21,20942,20959,16780.0,45,16785.0,19,16785.0,16790.0,16785.0,16790.0,7,7,16785,10,16790,46
2016-09-09 10:08:00,10:08:05,10:08:46,20978,21046,16785.0,16,16790.0,57,16790.0,16790.0,16785.0,16785.0,70,6,16780,28,16785,37
2016-09-09 10:09:00,10:09:33,10:09:58,21081,21169,16780.0,26,16785.0,54,16785.0,16785.0,16780.0,16785.0,115,36,16780,42,16785,52
2016-09-09 10:10:00,10:10:04,10:10:58,21177,21294,16780.0,41,16785.0,60,16780.0,16785.0,16780.0,16780.0,146,-20,16780,6,16785,71
2016-09-09 10:11:00,10:11:06,10:11:45,21309,21417,16775.0,51,16780.0,29,16780.0,16785.0,16780.0,16785.0,196,8,16780,48,16785,8
2016-09-09 10:12:00,10:12:03,10:12:46,21429,21509,16780.0,51,16785.0,6,16785.0,16785.0,16785.0,16785.0,34,24,16785,7,16790,37
2016-09-09 10:13:00,10:13:21,10:13:58,21542,21568,16785.0,49,16790.0,27,16790.0,16790.0,16785.0,16790.0,3,1,16785,40,16790,30
2016-09-09 10:14:00,10:14:03,10:14:03,21573,21574,16785.0,40,16790.0,39,16790.0,16790.0,16790.0,16790.0,2,2,16785,34,16790,42
2016-09-09 10:15:00,10:15:02,10:15:40,21599,21625,16785.0,45,16790.0,29,16790.0,16790.0,16785.0,16790.0,10,8,16785,52,16790,18
2016-09-09 10:16:00,10:16:04,10:16:53,21643,21708,16785.0,50,16790.0,20,16785.0,16790.0,16785.0,16790.0,68,-22,16785,37,16790,34
2016-09-09 10:17:00,10:17:00,10:17:43,21720,21797,16785.0,48,16790.0,19,16785.0,16790.0,16785.0,16790.0,95,77,16785,52,16790,1
2016-09-09 10:18:00,10:18:48,10:18:59,21841,21903,16785.0,49,16790.0,13,16790.0,16790.0,16790.0,16790.0,69,55,16785,48,16790,10
2016-09-09 10:19:00,10:19:00,10:19:00,21908,21910,16785.0,43,16790.0,5,16790.0,16790.0,16790.0,16790.0,5,5,16785,47,16790,1
2016-09-09 10:20:00,10:20:01,10:20:31,21953,21971,16785.0,45,16790.0,4,16790.0,16795.0,16790.0,16795.0,7,7,16790,20,16795,40
2016-09-09 10:21:00,10:21:00,10:21:00,0,0,0.0,0,0.0,0,16795.0,16795.0,16795.0,16795.0,0,0,0,0,0,0
2016-09-09 10:22:00,10:22:02,10:22:24,22023,22066,16790.0,40,16795.0,36,16795.0,16800.0,16795.0,16800.0,31,31,16795,24,16800,36
2016-09-09 10:23:00,10:23:04,10:23:08,22088,22094,16795.0,24,16800.0,41,16800.0,16800.0,16800.0,16800.0,2,2,16795,28,16800,38
2016-09-09 10:24:00,10:24:05,10:24:50,22137,22237,16795.0,30,16800.0,40,16800.0,16800.0,16790.0,16790.0,113,-111,16785,49,16795,57
2016-09-09 10:25:00,10:25:00,10:25:00,0,0,0.0,0,0.0,0,16790.0,16790.0,16790.0,16790.0,0,0,0,0,0,0
2016-09-09 10:26:00,10:26:04,10:26:47,22285,22355,16785.0,24,16790.0,59,16790.0,16790.0,16790.0,16790.0,67,51,16785,44,16790,16
2016-09-09 10:27:00,10:27:02,10:27:58,22363,22430,16785.0,46,16790.0,13,16790.0,16790.0,16785.0,16785.0,30,2,16785,5,16790,45
2016-09-09 10:28:00,10:28:28,10:28:59,22453,22547,16785.0,38,16790.0,35,16785.0,16790.0,16785.0,16785.0,97,-15,16785,49,16790,15
2016-09-09 10:29:00,10:29:02,10:29:59,22550,22592,16785.0,49,16790.0,15,16790.0,16795.0,16790.0,16795.0,18,8,16790,39,16795,41
2016-09-09 10:30:00,10:30:07,10:30:55,22612,22825,16790.0,63,16795.0,51,16795.0,16800.0,16790.0,16795.0,233,103,16790,34,16795,15
2016-09-09 10:31:00,10:31:00,10:31:32,22831,22857,16790.0,35,16795.0,20,16795.0,16795.0,16795.0,16795.0,4,4,16790,44,16795,22
2016-09-09 10:32:00,10:32:05,10:32:52,22874,23041,16790.0,45,16795.0,22,16795.0,16805.0,16795.0,16800.0,158,134,16800,21,16805,22
2016-09-09 10:33:00,10:33:03,10:33:56,23049,23109,16800.0,27,16805.0,22,16805.0,16805.0,16800.0,16800.0,41,1,16800,16,16805,30
2016-09-09 10:34:00,10:34:25,10:34:53,23135,23271,16800.0,13,16805.0,35,16800.0,16800.0,16795.0,16800.0,143,25,16795,30,16800,22
2016-09-09 10:35:00,10:35:10,10:35:37,23286,23316,16795.0,38,16800.0,16,16800.0,16800.0,16795.0,16795.0,29,-3,16790,36,16795,14
2016-09-09 10:36:00,10:36:32,10:36:59,23347,23366,16790.0,30,16795.0,28,16790.0,16790.0,16790.0,16790.0,11,-11,16790,32,16795,16
2016-09-09 10:37:00,10:37:12,10:37:16,23370,23383,16790.0,33,16795.0,20,16795.0,16795.0,16795.0,16795.0,17,17,16795,26,16800,42
2016-09-09 10:38:00,10:38:00,10:38:42,23397,23521,16795.0,34,16800.0,36,16800.0,16800.0,16800.0,16800.0,113,53,16795,33,16800,19
2016-09-09 10:39:00,10:39:15,10:39:54,23556,23859,16795.0,8,16800.0,36,16795.0,16835.0,16795.0,16835.0,379,244,16830,16,16835,21
2016-09-09 10:40:00,10:40:00,10:40:57,23873,24129,16830.0,42,16835.0,33,16830.0,16840.0,16830.0,16830.0,340,44,16830,14,16835,31
2016-09-09 10:41:00,10:41:00,10:41:53,24135,24259,16830.0,24,16835.0,34,16830.0,16840.0,16830.0,16835.0,111,7,16835,15,16840,26
2016-09-09 10:42:00,10:42:00,10:42:59,24269,24416,16835.0,20,16840.0,26,16835.0,16845.0,16835.0,16840.0,148,98,16835,46,16840,7
2016-09-09 10:43:00,10:43:00,10:43:57,24417,24645,16835.0,38,16840.0,24,16840.0,16840.0,16830.0,16835.0,251,-103,16830,47,16835,13
2016-09-09 10:44:00,10:44:02,10:44:53,24649,24844,16830.0,45,16835.0,18,16835.0,16840.0,16830.0,16835.0,223,-103,16830,34,16835,24
2016-09-09 10:45:00,10:45:03,10:45:54,24860,24960,16830.0,43,16835.0,18,16835.0,16840.0,16835.0,16835.0,82,31,16830,83,16835,3
2016-09-09 10:46:00,10:46:04,10:46:43,24966,25031,16830.0,82,16835.0,16,16835.0,16835.0,16835.0,16835.0,50,-14,16835,31,16840,26
2016-09-09 10:47:00,10:47:02,10:47:35,25046,25081,16835.0,37,16840.0,33,16835.0,16840.0,16835.0,16840.0,25,-21,16835,21,16840,41
2016-09-09 10:48:00,10:48:03,10:48:59,25093,25186,16835.0,32,16840.0,51,16835.0,16845.0,16835.0,16845.0,69,65,16840,83,16845,20
2016-09-09 10:49:00,10:49:03,10:49:53,25188,25282,16840.0,81,16845.0,20,16845.0,16845.0,16840.0,16845.0,90,6,16840,71,16845,16
2016-09-09 10:50:00,10:50:00,10:50:51,25286,25472,16840.0,71,16845.0,22,16845.0,16850.0,16840.0,16850.0,205,-85,16845,38,16850,36
2016-09-09 10:51:00,10:51:01,10:51:56,25476,25551,16845.0,41,16850.0,36,16850.0,16850.0,16840.0,16845.0,85,-69,16840,35,16845,32
2016-09-09 10:52:00,10:52:01,10:52:52,25561,25612,16840.0,35,16845.0,36,16845.0,16845.0,16840.0,16845.0,13,7,16840,47,16845,21
2016-09-09 10:53:00,10:53:01,10:53:53,25619,25677,16840.0,47,16845.0,24,16845.0,16850.0,16845.0,16845.0,51,1,16845,22,16850,44
2016-09-09 10:54:00,10:54:03,10:54:57,25681,25747,16845.0,26,16850.0,49,16850.0,16850.0,16845.0,16850.0,64,-26,16845,31,16850,35
2016-09-09 10:55:00,10:55:10,10:55:59,25757,25892,16845.0,24,16850.0,40,16850.0,16850.0,16845.0,16845.0,132,-50,16845,27,16850,40
2016-09-09 10:56:00,10:56:05,10:56:56,25902,25956,16845.0,31,16850.0,38,16850.0,16850.0,16850.0,16850.0,8,8,16845,46,16850,34
2016-09-09 10:57:00,10:57:01,10:57:58,25960,26028,16845.0,48,16850.0,34,16850.0,16850.0,16850.0,16850.0,22,22,16845,47,16850,73
2016-09-09 10:58:00,10:58:03,10:58:39,26031,26116,16845.0,47,16850.0,73,16850.0,16850.0,16845.0,16845.0,94,-68,16845,32,16850,73
2016-09-09 10:59:00,10:59:10,10:59:41,26131,26150,16845.0,48,16850.0,66,16845.0,16850.0,16845.0,16850.0,3,1,16845,49,16850,70
2016-09-09 11:00:00,11:00:00,11:00:58,26169,26335,16845.0,56,16850.0,63,16850.0,16860.0,16850.0,16855.0,158,154,16855,111,16860,25
2016-09-09 11:01:00,11:01:03,11:01:53,26339,26391,16855.0,111,16860.0,22,16855.0,16860.0,16855.0,16855.0,16,-6,16855,110,16860,37
2016-09-09 11:02:00,11:02:05,11:02:54,26397,26446,16855.0,113,16860.0,37,16860.0,16860.0,16855.0,16855.0,14,6,16855,104,16860,44
2016-09-09 11:03:00,11:03:04,11:03:57,26454,26592,16855.0,103,16860.0,39,16855.0,16860.0,16855.0,16860.0,138,-18,16855,107,16860,1
2016-09-09 11:04:00,11:04:00,11:04:27,26596,26620,16855.0,107,16860.0,6,16860.0,16860.0,16855.0,16855.0,20,-14,16855,87,16860,41
2016-09-09 11:05:00,11:05:15,11:05:52,26647,26775,16855.0,91,16860.0,40,16855.0,16855.0,16855.0,16855.0,174,-168,16850,137,16855,59
2016-09-09 11:06:00,11:06:00,11:06:57,26780,26924,16850.0,137,16855.0,58,16855.0,16860.0,16855.0,16860.0,132,-10,16855,72,16860,42
2016-09-09 11:07:00,11:07:07,11:07:50,26930,26987,16855.0,74,16860.0,47,16860.0,16860.0,16855.0,16855.0,38,36,16855,106,16860,26
2016-09-09 11:08:00,11:08:02,11:08:59,27004,27145,16855.0,107,16860.0,26,16855.0,16865.0,16855.0,16860.0,122,-2,16860,56,16865,54
2016-09-09 11:09:00,11:09:06,11:09:53,27150,27306,16860.0,58,16865.0,55,16860.0,16865.0,16860.0,16860.0,320,-250,16860,24,16865,65
2016-09-09 11:10:00,11:10:01,11:10:52,27310,27409,16860.0,24,16865.0,67,16860.0,16860.0,16855.0,16860.0,115,-73,16855,85,16860,7
2016-09-09 11:11:00,11:11:03,11:11:56,27427,27534,16855.0,87,16860.0,15,16855.0,16860.0,16855.0,16860.0,111,-27,16860,23,16865,59
2016-09-09 11:12:00,11:12:02,11:12:18,27545,27576,16860.0,37,16865.0,53,16860.0,16860.0,16855.0,16860.0,32,-20,16855,77,16860,5
2016-09-09 11:13:00,11:13:36,11:13:50,27624,27631,16855.0,67,16860.0,22,16855.0,16855.0,16855.0,16855.0,6,-6,16855,65,16860,20
2016-09-09 11:14:00,11:14:13,11:14:13,27644,27648,16855.0,66,16860.0,27,16855.0,16860.0,16855.0,16860.0,5,3,16855,60,16860,32
2016-09-09 11:15:00,11:15:01,11:15:03,27676,27682,16855.0,70,16860.0,30,16860.0,16860.0,16860.0,16860.0,6,6,16855,71,16860,18
2016-09-09 11:16:00,11:16:05,11:16:38,27723,27752,16855.0,73,16860.0,35,16860.0,16860.0,16860.0,16860.0,8,8,16855,78,16860,32
2016-09-09 11:17:00,11:17:18,11:17:42,27777,27803,16855.0,77,16860.0,51,16860.0,16860.0,16855.0,16860.0,7,5,16855,75,16860,45
2016-09-09 11:18:00,11:18:00,11:18:58,27814,27886,16855.0,73,16860.0,47,16860.0,16860.0,16855.0,16855.0,39,-29,16855,36,16860,59
2016-09-09 11:19:00,11:19:10,11:19:36,27892,28028,16855.0,42,16860.0,59,16855.0,16855.0,16850.0,16850.0,154,-132,16850,33,16855,62
2016-09-09 11:20:00,11:20:15,11:20:15,28055,28055,16850.0,67,16855.0,24,16850.0,16850.0,16850.0,16850.0,1,-1,16850,66,16855,22
2016-09-09 11:21:00,11:21:00,11:21:38,28074,28185,16850.0,97,16855.0,27,16855.0,16855.0,16855.0,16855.0,128,-76,16850,84,16855,3
2016-09-09 11:22:00,11:22:31,11:22:59,28213,28297,16850.0,90,16855.0,32,16850.0,16850.0,16850.0,16850.0,159,-147,16850,14,16855,52
2016-09-09 11:23:00,11:23:00,11:23:00,0,0,0.0,0,0.0,0,16850.0,16850.0,16850.0,16850.0,0,0,0,0,0,0
2016-09-09 11:24:00,11:24:27,11:24:58,28355,28382,16850.0,39,16855.0,62,16855.0,16855.0,16850.0,16855.0,8,4,16850,51,16855,45
2016-09-09 11:25:00,11:25:11,11:25:59,28390,28503,16850.0,53,16855.0,51,16855.0,16855.0,16850.0,16850.0,125,-21,16850,19,16855,61
2016-09-09 11:26:00,11:26:00,11:26:53,28507,28594,16850.0,29,16855.0,61,16850.0,16855.0,16850.0,16855.0,39,27,16850,53,16855,36
2016-09-09 11:27:00,11:27:01,11:27:01,28602,28618,16850.0,45,16855.0,53,16850.0,16850.0,16850.0,16850.0,50,-50,16845,58,16850,36
2016-09-09 11:28:00,11:28:28,11:28:58,28648,28775,16845.0,43,16850.0,62,16845.0,16850.0,16845.0,16850.0,211,-123,16850,19,16855,62
2016-09-09 11:29:00,11:29:46,11:29:46,28811,28830,16850.0,58,16855.0,45,16855.0,16855.0,16855.0,16855.0,46,46,16855,30,16860,51
2016-09-09 11:30:00,11:30:00,11:30:30,28863,29192,16855.0,30,16860.0,46,16855.0,16855.0,16840.0,16855.0,425,37,16850,34,16855,48
2016-09-09 11:31:00,11:31:00,11:31:53,29220,29600,16850.0,77,16855.0,22,16855.0,16875.0,16855.0,16875.0,569,431,16870,99,16875,25
2016-09-09 11:32:00,11:32:13,11:32:58,29627,29707,16870.0,95,16875.0,47,16875.0,16875.0,16870.0,16870.0,20,0,16870,88,16875,61
2016-09-09 11:33:00,11:33:43,11:33:57,29753,29920,16870.0,90,16875.0,76,16875.0,16875.0,16865.0,16870.0,300,50,16865,96,16870,9
2016-09-09 11:34:00,11:34:00,11:34:55,29923,30114,16865.0,96,16870.0,9,16870.0,16880.0,16870.0,16875.0,218,70,16875,15,16880,76
2016-09-09 11:35:00,11:35:00,11:35:51,30119,30202,16875.0,11,16880.0,79,16880.0,16880.0,16875.0,16875.0,61,1,16870,105,16875,44
2016-09-09 11:36:00,11:36:49,11:36:59,30243,30261,16870.0,107,16875.0,46,16870.0,16875.0,16870.0,16875.0,7,3,16870,108,16875,27
2016-09-09 11:37:00,11:37:18,11:37:59,30276,30615,16870.0,113,16875.0,42,16870.0,16870.0,16860.0,16865.0,556,160,16860,91,16865,4
2016-09-09 11:38:00,11:38:00,11:38:25,30618,30723,16860.0,93,16865.0,6,16865.0,16870.0,16865.0,16865.0,140,-35,16860,52,16865,47
2016-09-09 11:39:00,11:39:38,11:39:50,30771,30808,16860.0,61,16865.0,65,16860.0,16860.0,16860.0,16860.0,44,-44,16860,20,16865,66
2016-09-09 11:40:00,11:40:00,11:40:43,30819,31011,16860.0,27,16865.0,71,16860.0,16865.0,16855.0,16865.0,243,-87,16860,38,16865,62
2016-09-09 11:41:00,11:41:28,11:41:55,31058,31126,16860.0,50,16865.0,61,16865.0,16870.0,16860.0,16865.0,116,60,16865,50,16870,42
2016-09-09 11:42:00,11:42:04,11:42:40,31130,31244,16865.0,50,16870.0,44,16865.0,16865.0,16860.0,16860.0,172,2,16860,1,16865,53
2016-09-09 11:43:00,11:43:40,11:43:53,31317,31384,16860.0,36,16865.0,53,16865.0,16865.0,16865.0,16865.0,96,72,16860,53,16865,21
2016-09-09 11:44:00,11:44:32,11:44:48,31434,31442,16860.0,45,16865.0,42,16860.0,16860.0,16860.0,16860.0,3,-3,16860,50,16865,41
2016-09-09 11:45:00,11:45:28,11:45:57,31467,31553,16860.0,33,16865.0,67,16860.0,16860.0,16860.0,16860.0,106,-66,16860,7,16865,69
2016-09-09 11:46:00,11:46:07,11:46:47,31570,31640,16860.0,12,16865.0,74,16860.0,16860.0,16860.0,16860.0,141,13,16855,42,16860,14
2016-09-09 11:47:00,11:47:00,11:47:00,0,0,0.0,0,0.0,0,16860.0,16860.0,16860.0,16860.0,0,0,0,0,0,0
2016-09-09 11:48:00,11:48:01,11:48:59,31707,31874,16855.0,47,16860.0,29,16855.0,16860.0,16855.0,16860.0,154,-110,16855,10,16860,48
2016-09-09 11:49:00,11:49:05,11:49:50,31883,31984,16850.0,48,16860.0,51,16850.0,16850.0,16845.0,16850.0,80,-74,16845,45,16850,43
2016-09-09 11:50:00,11:50:10,11:50:59,31993,32063,16845.0,14,16850.0,54,16850.0,16850.0,16840.0,16840.0,23,-21,16840,34,16845,43
2016-09-09 11:51:00,11:51:04,11:51:56,32068,32169,16840.0,37,16845.0,34,16845.0,16850.0,16845.0,16850.0,89,53,16850,5,16855,50
2016-09-09 11:52:00,11:52:12,11:52:12,32184,32184,16850.0,33,16855.0,62,16855.0,16855.0,16855.0,16855.0,1,1,16850,28,16855,61
2016-09-09 11:53:00,11:53:02,11:53:42,32208,32310,16850.0,25,16855.0,60,16855.0,16855.0,16855.0,16855.0,121,3,16855,86,16860,49
2016-09-09 11:54:00,11:54:32,11:54:32,32331,32338,16855.0,97,16860.0,52,16855.0,16855.0,16855.0,16855.0,45,-45,16855,48,16860,57
2016-09-09 11:55:00,11:55:00,11:55:51,32357,32437,16855.0,53,16860.0,49,16860.0,16860.0,16855.0,16860.0,75,-17,16860,47,16865,66
2016-09-09 11:56:00,11:56:01,11:56:16,32453,32457,16860.0,72,16865.0,76,16860.0,16860.0,16860.0,16860.0,15,-15,16860,58,16865,74
2016-09-09 11:57:00,11:57:40,11:57:52,32475,32478,16860.0,61,16865.0,74,16865.0,16865.0,16860.0,16860.0,2,0,16860,58,16865,77
2016-09-09 11:58:00,11:58:04,11:58:12,32489,32525,16860.0,49,16865.0,80,16860.0,16860.0,16855.0,16860.0,57,-53,16855,16,16860,85
2016-09-09 11:59:00,11:59:01,11:59:57,32545,32631,16855.0,37,16860.0,84,16855.0,16855.0,16850.0,16855.0,74,8,16850,49,16855,7
2016-09-09 12:00:00,12:00:05,12:00:22,32648,32686,16850.0,38,16855.0,35,16850.0,16850.0,16850.0,16850.0,49,-49,16850,70,16855,70
2016-09-09 12:01:00,12:01:26,12:01:52,32724,32779,16850.0,65,16855.0,75,16855.0,16855.0,16855.0,16855.0,75,9,16850,56,16855,5
2016-09-09 12:02:00,12:02:01,12:02:01,32795,32801,16850.0,33,16855.0,35,16855.0,16855.0,16855.0,16855.0,11,11,16850,54,16855,20
2016-09-09 12:03:00,12:03:20,12:03:55,32834,32874,16850.0,56,16855.0,38,16855.0,16860.0,16855.0,16860.0,16,16,16855,51,16860,44
2016-09-09 12:04:00,12:04:07,12:04:59,32886,32936,16855.0,42,16860.0,46,16855.0,16860.0,16855.0,16860.0,8,2,16855,67,16860,23
2016-09-09 12:05:00,12:05:03,12:05:47,32942,32992,16855.0,72,16860.0,24,16860.0,16865.0,16860.0,16865.0,49,49,16860,81,16865,36
2016-09-09 12:06:00,12:06:13,12:06:59,33010,33128,16860.0,79,16865.0,48,16865.0,16870.0,16860.0,16870.0,171,143,16870,5,16875,62
2016-09-09 12:07:00,12:07:00,12:07:51,33131,33268,16870.0,5,16875.0,62,16870.0,16870.0,16870.0,16870.0,143,-15,16870,7,16875,64
2016-09-09 12:08:00,12:08:07,12:08:56,33276,33331,16870.0,17,16875.0,65,16870.0,16870.0,16860.0,16860.0,34,-34,16860,48,16865,74
2016-09-09 12:09:00,12:09:00,12:09:00,0,0,0.0,0,0.0,0,16860.0,16860.0,16860.0,16860.0,0,0,0,0,0,0
2016-09-09 12:10:00,12:10:00,12:10:58,33360,33482,16860.0,51,16865.0,77,16865.0,16865.0,16860.0,16860.0,180,50,16860,14,16865,47
2016-09-09 12:11:00,12:11:21,12:11:59,33502,33529,16860.0,44,16865.0,39,16860.0,16860.0,16860.0,16860.0,25,-25,16855,31,16860,35
2016-09-09 12:12:00,12:12:00,12:12:50,33530,33758,16860.0,24,16865.0,48,16860.0,16860.0,16845.0,16855.0,201,69,16850,61,16855,4
2016-09-09 12:13:00,12:13:19,12:13:56,33777,33978,16850.0,54,16855.0,20,16850.0,16850.0,16840.0,16840.0,276,-252,16835,43,16845,50
2016-09-09 12:14:00,12:14:13,12:14:57,34009,34140,16840.0,22,16845.0,49,16840.0,16845.0,16840.0,16845.0,128,28,16845,20,16850,65
2016-09-09 12:15:00,12:15:03,12:15:55,34154,34295,16845.0,29,16850.0,58,16850.0,16850.0,16845.0,16850.0,122,-53,16845,39,16850,39
2016-09-09 12:16:00,12:16:05,12:16:49,34310,34447,16845.0,54,16850.0,24,16850.0,16855.0,16845.0,16850.0,240,-54,16845,17,16850,42
2016-09-09 12:17:00,12:17:01,12:17:55,34464,34568,16845.0,51,16850.0,31,16850.0,16855.0,16850.0,16855.0,88,72,16855,34,16860,46
2016-09-09 12:18:00,12:18:21,12:18:57,34590,34653,16855.0,27,16860.0,40,16855.0,16855.0,16850.0,16850.0,61,-61,16845,32,16850,33
2016-09-09 12:19:00,12:19:01,12:19:21,34659,34718,16845.0,32,16850.0,26,16850.0,16850.0,16845.0,16845.0,58,-14,16845,14,16850,43
2016-09-09 12:20:00,12:20:16,12:20:28,34780,34819,16845.0,14,16850.0,43,16845.0,16845.0,16845.0,16845.0,58,-52,16845,13,16850,51
2016-09-09 12:21:00,12:21:00,12:21:53,34856,34950,16845.0,23,16850.0,56,16845.0,16845.0,16845.0,16845.0,61,-49,16845,11,16850,48
2016-09-09 12:22:00,12:22:22,12:22:54,34974,35069,16845.0,35,16850.0,41,16850.0,16850.0,16845.0,16845.0,140,-10,16845,40,16850,11
2016-09-09 12:23:00,12:23:24,12:23:24,35090,35090,16845.0,29,16850.0,40,16845.0,16845.0,16845.0,16845.0,2,-2,16845,27,16850,41
2016-09-09 12:24:00,12:24:37,12:24:59,35114,35159,16845.0,25,16850.0,48,16850.0,16855.0,16850.0,16855.0,41,41,16850,50,16855,5
2016-09-09 12:25:00,12:25:03,12:25:53,35165,35220,16850.0,48,16855.0,11,16855.0,16855.0,16850.0,16855.0,35,-5,16855,8,16860,46
2016-09-09 12:26:00,12:26:00,12:26:57,35227,35292,16855.0,13,16860.0,43,16855.0,16855.0,16850.0,16850.0,82,-78,16845,67,16850,12
2016-09-09 12:27:00,12:27:00,12:27:00,0,0,0.0,0,0.0,0,16850.0,16850.0,16850.0,16850.0,0,0,0,0,0,0
2016-09-09 12:28:00,12:28:14,12:28:59,35361,35393,16845.0,58,16850.0,40,16845.0,16850.0,16845.0,16850.0,32,28,16850,7,16855,53
2016-09-09 12:29:00,12:29:00,12:29:07,35397,35417,16850.0,5,16855.0,53,16850.0,16855.0,16850.0,16850.0,18,-8,16850,19,16855,56
2016-09-09 12:30:00,12:30:03,12:30:40,35458,35511,16850.0,28,16855.0,37,16850.0,16850.0,16845.0,16850.0,47,-21,16845,66,16850,2
2016-09-09 12:31:00,12:31:03,12:31:18,35524,35566,16845.0,63,16850.0,7,16850.0,16850.0,16850.0,16850.0,58,-22,16850,3,16855,49
2016-09-09 12:32:00,12:32:00,12:32:00,0,0,0.0,0,0.0,0,16850.0,16850.0,16850.0,16850.0,0,0,0,0,0,0
2016-09-09 12:33:00,12:33:03,12:33:32,35642,35688,16850.0,42,16855.0,31,16850.0,16855.0,16850.0,16855.0,21,17,16850,63,16855,13
2016-09-09 12:34:00,12:34:25,12:34:55,35729,35759,16850.0,57,16855.0,14,16855.0,16855.0,16855.0,16855.0,4,4,16850,54,16855,7
2016-09-09 12:35:00,12:35:02,12:35:54,35763,35895,16850.0,57,16855.0,7,16855.0,16855.0,16850.0,16855.0,133,-48,16850,41,16860,49
2016-09-09 12:36:00,12:36:00,12:36:00,0,0,0.0,0,0.0,0,16855.0,16855.0,16855.0,16855.0,0,0,0,0,0,0
2016-09-09 12:37:00,12:37:52,12:37:53,35955,35959,16850.0,33,16855.0,33,16850.0,16850.0,16850.0,16850.0,4,-4,16850,29,16855,30
2016-09-09 12:38:00,12:38:28,12:38:28,35977,35978,16850.0,41,16855.0,10,16855.0,16855.0,16855.0,16855.0,6,6,16850,43,16855,6
2016-09-09 12:39:00,12:39:00,12:39:00,0,0,0.0,0,0.0,0,16855.0,16855.0,16855.0,16855.0,0,0,0,0,0,0
2016-09-09 12:40:00,12:40:07,12:40:17,36041,36047,16855.0,52,16860.0,48,16860.0,16860.0,16855.0,16855.0,7,3,16855,51,16860,42
2016-09-09 12:41:00,12:41:16,12:41:24,36062,36072,16855.0,50,16860.0,53,16860.0,16860.0,16855.0,16855.0,12,10,16855,53,16860,38
2016-09-09 12:42:00,12:42:29,12:42:41,36101,36136,16855.0,46,16860.0,43,16855.0,16855.0,16855.0,16855.0,43,-37,16855,13,16860,50
2016-09-09 12:43:00,12:43:00,12:43:00,0,0,0.0,0,0.0,0,16855.0,16855.0,16855.0,16855.0,0,0,0,0,0,0
2016-09-09 12:44:00,12:44:00,12:44:19,36185,36196,16855.0,15,16860.0,52,16860.0,16860.0,16855.0,16855.0,3,-1,16855,14,16860,60
2016-09-09 12:45:00,12:45:06,12:45:55,36215,36308,16855.0,27,16860.0,55,16855.0,16860.0,16855.0,16860.0,94,2,16855,50,16860,12
2016-09-09 12:46:00,12:46:08,12:46:54,36317,36377,16855.0,52,16860.0,6,16860.0,16860.0,16860.0,16860.0,52,6,16855,53,16860,4
2016-09-09 12:47:00,12:47:07,12:47:59,36392,36443,16855.0,33,16860.0,41,16855.0,16855.0,16855.0,16855.0,47,-23,16855,4,16860,47
2016-09-09 12:48:00,12:48:04,12:48:54,36447,36522,16850.0,49,16855.0,6,16855.0,16855.0,16850.0,16850.0,94,42,16850,39,16855,79
2016-09-09 12:49:00,12:49:12,12:49:55,36544,36598,16850.0,48,16855.0,49,16850.0,16850.0,16845.0,16850.0,67,-55,16845,77,16850,2
2016-09-09 12:50:00,12:50:00,12:50:26,36605,36642,16845.0,84,16850.0,2,16845.0,16845.0,16845.0,16845.0,39,-39,16845,30,16850,45
2016-09-09 12:51:00,12:51:00,12:51:00,0,0,0.0,0,0.0,0,16845.0,16845.0,16845.0,16845.0,0,0,0,0,0,0
2016-09-09 12:52:00,12:52:20,12:52:51,36729,36751,16845.0,38,16850.0,40,16845.0,16845.0,16845.0,16845.0,5,-5,16845,25,16850,47
2016-09-09 12:53:00,12:53:00,12:53:00,0,0,0.0,0,0.0,0,16845.0,16845.0,16845.0,16845.0,0,0,0,0,0,0
2016-09-09 12:54:00,12:54:45,12:54:45,36815,36815,16845.0,45,16850.0,36,16845.0,16845.0,16845.0,16845.0,2,-2,16845,43,16850,38
2016-09-09 12:55:00,12:55:03,12:55:59,36831,36914,16845.0,43,16850.0,36,16845.0,16850.0,16845.0,16850.0,62,32,16850,2,16855,50
2016-09-09 12:56:00,12:56:00,12:56:41,36917,36972,16850.0,2,16855.0,50,16850.0,16850.0,16850.0,16850.0,44,-24,16850,23,16855,47
2016-09-09 12:57:00,12:57:07,12:57:13,37001,37044,16850.0,33,16855.0,43,16850.0,16850.0,16850.0,16850.0,90,-90,16845,59,16850,17
2016-09-09 12:58:00,12:58:00,12:58:00,0,0,0.0,0,0.0,0,16850.0,16850.0,16850.0,16850.0,0,0,0,0,0,0
2016-09-09 12:59:00,12:59:05,12:59:34,37084,37130,16845.0,75,16850.0,14,16850.0,16850.0,16845.0,16845.0,41,3,16845,52,16850,41
2016-09-09 13:00:00,13:00:00,13:00:57,37137,37254,16845.0,56,16850.0,39,16850.0,16850.0,16845.0,16850.0,107,63,16845,69,16855,65
2016-09-09 13:01:00,13:01:46,13:01:59,37300,37308,16845.0,67,16850.0,23,16850.0,16850.0,16845.0,16845.0,3,-1,16845,59,16850,30
2016-09-09 13:02:00,13:02:05,13:02:13,37314,37336,16845.0,58,16850.0,47,16845.0,16850.0,16845.0,16850.0,34,10,16845,48,16850,36
2016-09-09 13:03:00,13:03:00,13:03:00,0,0,0.0,0,0.0,0,16850.0,16850.0,16850.0,16850.0,0,0,0,0,0,0
2016-09-09 13:04:00,13:04:08,13:04:23,37392,37420,16845.0,61,16850.0,10,16850.0,16850.0,16845.0,16845.0,33,-7,16845,33,16850,43
2016-09-09 13:05:00,13:05:02,13:05:53,37448,37486,16845.0,43,16850.0,51,16850.0,16850.0,16850.0,16850.0,9,9,16845,54,16850,12
2016-09-09 13:06:00,13:06:44,13:06:48,37537,37540,16845.0,30,16850.0,49,16845.0,16845.0,16845.0,16845.0,3,-3,16845,27,16850,50
2016-09-09 13:07:00,13:07:41,13:07:41,37580,37600,16845.0,56,16850.0,36,16850.0,16850.0,16850.0,16850.0,42,42,16845,67,16850,7
2016-09-09 13:08:00,13:08:00,13:08:00,0,0,0.0,0,0.0,0,16850.0,16850.0,16850.0,16850.0,0,0,0,0,0,0
2016-09-09 13:09:00,13:09:02,13:09:17,37650,37707,16845.0,58,16850.0,13,16850.0,16855.0,16850.0,16850.0,88,-42,16845,47,16850,38
2016-09-09 13:10:00,13:10:10,13:10:54,37725,37757,16845.0,64,16850.0,19,16850.0,16850.0,16850.0,16850.0,29,25,16850,39,16855,57
2016-09-09 13:11:00,13:11:37,13:11:38,37784,37787,16850.0,65,16855.0,30,16850.0,16855.0,16850.0,16855.0,3,-1,16850,62,16855,30
2016-09-09 13:12:00,13:12:07,13:12:57,37802,37848,16850.0,37,16855.0,65,16850.0,16850.0,16850.0,16850.0,74,-4,16845,63,16855,67
2016-09-09 13:13:00,13:13:15,13:13:16,37856,37864,16845.0,63,16850.0,10,16850.0,16850.0,16850.0,16850.0,14,14,16845,66,16855,67
2016-09-09 13:14:00,13:14:00,13:14:51,37889,37967,16845.0,66,16850.0,5,16850.0,16850.0,16845.0,16850.0,53,-5,16850,3,16855,58
2016-09-09 13:15:00,13:15:01,13:15:10,37973,37997,16850.0,3,16855.0,58,16850.0,16855.0,16850.0,16855.0,10,0,16850,35,16855,41
2016-09-09 13:16:00,13:16:02,13:16:35,38034,38109,16850.0,50,16855.0,30,16855.0,16855.0,16850.0,16855.0,76,61,16855,2,16860,62
2016-09-09 13:17:00,13:17:00,13:17:00,0,0,0.0,0,0.0,0,16855.0,16855.0,16855.0,16855.0,0,0,0,0,0,0
2016-09-09 13:18:00,13:18:01,13:18:51,38162,38190,16855.0,49,16860.0,46,16860.0,16860.0,16855.0,16855.0,6,-2,16855,30,16860,49
2016-09-09 13:19:00,13:19:26,13:19:52,38211,38316,16855.0,63,16860.0,52,16860.0,16865.0,16860.0,16860.0,96,44,16855,64,16860,34
2016-09-09 13:20:00,13:20:20,13:20:35,38355,38421,16855.0,66,16860.0,46,16860.0,16860.0,16860.0,16860.0,88,59,16855,71,16860,7
2016-09-09 13:21:00,13:21:16,13:21:54,38453,38471,16855.0,55,16860.0,44,16855.0,16860.0,16855.0,16855.0,7,1,16855,54,16860,39
2016-09-09 13:22:00,13:22:04,13:22:59,38491,38538,16855.0,63,16860.0,39,16855.0,16860.0,16855.0,16855.0,77,-33,16850,63,16855,12
2016-09-09 13:23:00,13:23:40,13:23:43,38560,38564,16850.0,62,16855.0,33,16850.0,16855.0,16850.0,16855.0,3,-1,16850,61,16855,35
2016-09-09 13:24:00,13:24:37,13:24:44,38600,38606,16850.0,55,16855.0,51,16850.0,16850.0,16850.0,16850.0,4,-4,16850,56,16855,49
2016-09-09 13:25:00,13:25:01,13:25:54,38610,38806,16850.0,56,16855.0,47,16855.0,16855.0,16850.0,16855.0,251,3,16855,19,16860,52
2016-09-09 13:26:00,13:26:03,13:26:56,38821,38982,16855.0,15,16860.0,47,16855.0,16865.0,16850.0,16860.0,185,30,16855,56,16865,50
2016-09-09 13:27:00,13:27:50,13:27:54,39009,39026,16855.0,55,16860.0,14,16860.0,16860.0,16860.0,16860.0,23,-7,16855,47,16860,15
2016-09-09 13:28:00,13:28:30,13:28:43,39052,39084,16855.0,45,16860.0,30,16855.0,16860.0,16855.0,16860.0,27,22,16855,47,16860,18
2016-09-09 13:29:00,13:29:00,13:29:59,39099,39139,16855.0,49,16860.0,19,16860.0,16860.0,16860.0,16860.0,6,6,16855,64,16860,36
2016-09-09 13:30:00,13:30:11,13:30:54,39155,39183,16855.0,55,16860.0,51,16860.0,16860.0,16855.0,16855.0,7,-1,16855,52,16860,51
2016-09-09 13:31:00,13:31:04,13:31:22,39190,39218,16855.0,52,16860.0,51,16855.0,16860.0,16855.0,16855.0,27,-21,16855,50,16860,50
2016-09-09 13:32:00,13:32:03,13:32:59,39239,39275,16855.0,42,16860.0,61,16860.0,16860.0,16855.0,16855.0,21,19,16855,41,16860,49
2016-09-09 13:33:00,13:33:00,13:33:47,39278,39332,16855.0,41,16860.0,49,16855.0,16855.0,16855.0,16855.0,20,-20,16855,39,16860,47
2016-09-09 13:34:00,13:34:09,13:34:36,39358,39377,16855.0,37,16860.0,47,16855.0,16855.0,16855.0,16855.0,5,-5,16855,36,16860,61
2016-09-09 13:35:00,13:35:37,13:35:59,39409,39441,16855.0,50,16860.0,52,16855.0,16860.0,16855.0,16855.0,16,4,16855,42,16860,43
2016-09-09 13:36:00,13:36:06,13:36:47,39444,39525,16855.0,46,16860.0,41,16855.0,16860.0,16855.0,16860.0,60,58,16855,53,16860,9
2016-09-09 13:37:00,13:37:04,13:37:08,39543,39581,16855.0,21,16860.0,84,16855.0,16855.0,16855.0,16855.0,52,4,16850,60,16860,54
2016-09-09 13:38:00,13:38:07,13:38:11,39624,39639,16855.0,25,16860.0,55,16855.0,16855.0,16855.0,16855.0,17,-17,16850,50,16855,12
2016-09-09 13:39:00,13:39:00,13:39:00,0,0,0.0,0,0.0,0,16855.0,16855.0,16855.0,16855.0,0,0,0,0,0,0
2016-09-09 13:40:00,13:40:08,13:40:54,39733,39817,16850.0,50,16855.0,45,16850.0,16855.0,16850.0,16855.0,21,-9,16850,52,16855,33
2016-09-09 13:41:00,13:41:07,13:41:49,39838,39973,16850.0,53,16855.0,33,16855.0,16855.0,16855.0,16855.0,149,103,16850,55,16855,6
2016-09-09 13:42:00,13:42:42,13:42:57,40034,40055,16850.0,50,16855.0,57,16850.0,16855.0,16850.0,16850.0,6,-2,16850,47,16850,7
2016-09-09 13:43:00,13:43:00,13:43:59,40058,40210,16850.0,50,16855.0,83,16850.0,16850.0,16845.0,16850.0,203,-17,16845,70,16850,20
2016-09-09 13:44:00,13:44:19,13:44:50,40240,40297,16845.0,116,16850.0,25,16850.0,16850.0,16845.0,16845.0,80,44,16845,108,16850,58
2016-09-09 13:45:00,13:45:22,13:45:23,40310,40312,16845.0,106,16850.0,52,16845.0,16850.0,16845.0,16850.0,3,-1,16845,109,16850,51
2016-09-09 13:46:00,13:46:16,13:46:16,40334,40336,16845.0,133,16850.0,76,16850.0,16850.0,16850.0,16850.0,5,5,16845,134,16850,71
2016-09-09 13:47:00,13:47:25,13:47:57,40359,40464,16845.0,131,16850.0,107,16845.0,16850.0,16845.0,16850.0,262,120,16845,75,16850,28
2016-09-09 13:48:00,13:48:00,13:48:31,40470,40567,16845.0,85,16850.0,16,16850.0,16850.0,16850.0,16850.0,94,62,16850,7,16855,79
2016-09-09 13:49:00,13:49:02,13:49:55,40607,40733,16850.0,50,16855.0,44,16855.0,16855.0,16855.0,16855.0,158,8,16850,61,16860,68
2016-09-09 13:50:00,13:50:11,13:50:54,40754,40891,16855.0,28,16860.0,36,16855.0,16860.0,16855.0,16860.0,122,18,16855,31,16860,40
2016-09-09 13:51:00,13:51:06,13:51:45,40917,41013,16855.0,49,16860.0,35,16860.0,16860.0,16860.0,16860.0,96,96,16855,60,16860,11
2016-09-09 13:52:00,13:52:05,13:52:36,41027,41104,16855.0,68,16860.0,16,16860.0,16860.0,16855.0,16855.0,117,101,16855,60,16860,26
2016-09-09 13:53:00,13:53:01,13:53:07,41125,41166,16855.0,36,16860.0,60,16855.0,16855.0,16850.0,16850.0,62,-38,16850,45,16855,39
2016-09-09 13:54:00,13:54:03,13:54:31,41215,41246,16850.0,48,16855.0,71,16850.0,16855.0,16850.0,16855.0,4,2,16850,84,16855,74
2016-09-09 13:55:00,13:55:01,13:55:59,41266,41443,16850.0,68,16855.0,86,16855.0,16855.0,16845.0,16850.0,220,-88,16850,31,16855,88
2016-09-09 13:56:00,13:56:05,13:56:49,41449,41603,16850.0,29,16855.0,91,16850.0,16855.0,16845.0,16845.0,174,-4,16845,55,16850,53
2016-09-09 13:57:00,13:57:10,13:57:50,41649,41772,16845.0,49,16850.0,96,16845.0,16850.0,16845.0,16845.0,126,82,16845,96,16850,41
2016-09-09 13:58:00,13:58:00,13:58:59,41778,41890,16845.0,87,16850.0,53,16845.0,16845.0,16845.0,16845.0,25,-25,16845,83,16850,92
2016-09-09 13:59:00,13:59:01,13:59:59,41895,42119,16845.0,83,16850.0,90,16845.0,16850.0,16840.0,16845.0,261,-143,16840,76,16845,73
2016-09-09 14:00:00,14:00:00,14:00:49,42120,42567,16840.0,49,16845.0,60,16840.0,16850.0,16830.0,16840.0,842,-24,16835,134,16840,43
2016-09-09 14:01:00,14:01:00,14:01:51,42598,42823,16835.0,120,16840.0,116,16840.0,16840.0,16825.0,16825.0,349,-251,16825,51,16830,85
2016-09-09 14:02:00,14:02:00,14:02:52,42845,42937,16825.0,71,16830.0,74,16830.0,16830.0,16825.0,16825.0,42,-10,16825,44,16830,111
2016-09-09 14:03:00,14:03:00,14:03:59,42948,42996,16825.0,74,16830.0,112,16830.0,16830.0,16825.0,16825.0,21,-1,16825,47,16830,116
2016-09-09 14:04:00,14:04:00,14:04:58,42997,43158,16825.0,46,16830.0,118,16830.0,16830.0,16820.0,16825.0,156,-140,16820,115,16825,101
2016-09-09 14:05:00,14:05:13,14:05:54,43179,43243,16820.0,75,16825.0,115,16820.0,16825.0,16820.0,16820.0,42,0,16820,137,16825,106
2016-09-09 14:06:00,14:06:03,14:06:56,43250,43472,16820.0,133,16825.0,105,16825.0,16830.0,16820.0,16830.0,410,248,16830,13,16835,132
2016-09-09 14:07:00,14:07:05,14:07:56,43483,43566,16830.0,31,16835.0,132,16830.0,16835.0,16830.0,16830.0,79,-35,16830,56,16840,82
2016-09-09 14:08:00,14:08:01,14:08:47,43571,43843,16830.0,53,16835.0,118,16835.0,16845.0,16835.0,16835.0,684,468,16835,39,16840,56
