,ST,ET,sidx,eidx,bB,bBS,bA,bAS,O,H,L,C,V,OF,eB,eBS,eA,eAS
2016-11-14 08:00:00,08:00:00,08:00:52,1536,1675,17490.0,9,17495.0,39,17485.0,17490.0,17475.0,17475.0,133,-92,17475,25,17480,17
2016-11-14 08:01:00,08:01:04,08:01:56,1680,1825,17475.0,28,17480.0,12,17480.0,17495.0,17475.0,17480.0,199,83,17475,11,17480,4
2016-11-14 08:02:00,08:02:00,08:02:57,1831,1942,17475.0,11,17480.0,15,17475.0,17485.0,17475.0,17475.0,92,-6,17470,17,17480,16
2016-11-14 08:03:00,08:03:02,08:03:51,1948,2006,17475.0,8,17480.0,16,17480.0,17480.0,17475.0,17480.0,55,7,17475,22,17480,6
2016-11-14 08:04:00,08:04:01,08:04:56,2013,2079,17475.0,23,17480.0,7,17480.0,17490.0,17480.0,17490.0,44,24,17490,4,17495,9
2016-11-14 08:05:00,08:05:00,08:05:59,2086,2388,17490.0,21,17495.0,3,17495.0,17550.0,17495.0,17550.0,409,292,17545,23,17550,14
2016-11-14 08:06:00,08:06:00,08:06:59,2390,2579,17545.0,29,17550.0,14,17545.0,17555.0,17540.0,17545.0,262,-32,17545,12,17550,22
2016-11-14 08:07:00,08:07:04,08:07:51,2583,2691,17545.0,16,17550.0,22,17545.0,17545.0,17530.0,17530.0,84,-58,17530,19,17535,22
2016-11-14 08:08:00,08:08:00,08:08:54,2696,2812,17530.0,19,17535.0,24,17530.0,17540.0,17520.0,17540.0,156,-20,17530,4,17535,2
2016-11-14 08:09:00,08:09:03,08:09:59,2822,2896,17530.0,12,17535.0,6,17535.0,17535.0,17520.0,17520.0,59,-43,17520,15,17525,15
2016-11-14 08:10:00,08:10:00,08:10:54,2899,2965,17520.0,15,17525.0,15,17520.0,17530.0,17520.0,17525.0,59,9,17525,10,17530,36
2016-11-14 08:11:00,08:11:00,08:11:53,2969,2998,17525.0,14,17530.0,34,17525.0,17530.0,17525.0,17530.0,16,6,17525,35,17530,25
2016-11-14 08:12:00,08:12:00,08:12:59,3001,3094,17525.0,36,17530.0,27,17525.0,17535.0,17520.0,17525.0,144,14,17525,2,17530,26
2016-11-14 08:13:00,08:13:00,08:13:45,3097,3121,17525.0,2,17530.0,26,17525.0,17530.0,17525.0,17530.0,19,3,17525,9,17530,19
2016-11-14 08:14:00,08:14:08,08:14:58,3131,3197,17525.0,22,17530.0,16,17530.0,17530.0,17525.0,17525.0,85,-29,17525,1,17530,21
2016-11-14 08:15:00,08:15:01,08:15:57,3201,3288,17525.0,4,17530.0,21,17525.0,17540.0,17525.0,17540.0,94,62,17540,5,17550,27
2016-11-14 08:16:00,08:16:01,08:16:52,3297,3340,17540.0,14,17550.0,25,17550.0,17550.0,17540.0,17545.0,37,3,17540,19,17545,7
2016-11-14 08:17:00,08:17:00,08:17:38,3346,3397,17540.0,17,17545.0,20,17545.0,17550.0,17540.0,17545.0,59,0,17545,6,17550,22
2016-11-14 08:18:00,08:18:00,08:18:59,3410,3501,17545.0,26,17550.0,23,17545.0,17550.0,17540.0,17545.0,87,-19,17540,25,17545,7
2016-11-14 08:19:00,08:19:01,08:19:46,3506,3581,17540.0,28,17545.0,2,17550.0,17555.0,17545.0,17545.0,75,-11,17540,9,17545,4
2016-11-14 08:20:00,08:20:00,08:20:22,3590,3664,17540.0,32,17545.0,10,17540.0,17545.0,17535.0,17540.0,98,-50,17540,7,17545,11
2016-11-14 08:21:00,08:21:06,08:21:39,3679,3705,17540.0,30,17545.0,16,17545.0,17545.0,17545.0,17545.0,17,17,17540,28,17545,10
2016-11-14 08:22:00,08:22:00,08:22:57,3715,3755,17540.0,29,17545.0,9,17540.0,17550.0,17540.0,17550.0,43,13,17545,18,17550,22
2016-11-14 08:23:00,08:23:00,08:23:56,3759,3855,17545.0,28,17550.0,22,17545.0,17550.0,17540.0,17540.0,148,-102,17535,9,17545,25
2016-11-14 08:24:00,08:24:11,08:24:55,3863,3881,17535.0,6,17540.0,1,17540.0,17540.0,17535.0,17535.0,6,-4,17535,16,17540,3
2016-11-14 08:25:00,08:25:01,08:25:31,3886,3917,17535.0,19,17540.0,3,17535.0,17540.0,17535.0,17540.0,30,-18,17535,21,17540,16
2016-11-14 08:26:00,08:26:01,08:26:47,3927,3966,17535.0,22,17540.0,18,17540.0,17540.0,17535.0,17540.0,30,14,17535,9,17540,8
2016-11-14 08:27:00,08:27:03,08:27:50,3972,4015,17535.0,22,17540.0,13,17540.0,17540.0,17540.0,17540.0,47,47,17535,16,17540,6
2016-11-14 08:28:00,08:28:03,08:28:58,4020,4076,17535.0,16,17540.0,12,17540.0,17540.0,17540.0,17540.0,84,84,17535,30,17540,5
2016-11-14 08:29:00,08:29:00,08:29:54,4078,4173,17535.0,25,17540.0,5,17540.0,17545.0,17535.0,17540.0,93,45,17535,34,17540,3
2016-11-14 08:30:00,08:30:00,08:30:59,4175,4408,17535.0,30,17540.0,3,17540.0,17580.0,17540.0,17580.0,281,191,17570,15,17575,5
2016-11-14 08:31:00,08:31:00,08:31:56,4409,4553,17570.0,17,17580.0,22,17575.0,17590.0,17575.0,17585.0,139,62,17585,1,17590,22
2016-11-14 08:32:00,08:32:00,08:32:55,4557,4649,17585.0,2,17590.0,23,17585.0,17590.0,17575.0,17585.0,131,42,17580,5,17585,10
2016-11-14 08:33:00,08:33:02,08:33:57,4655,4710,17580.0,17,17585.0,11,17585.0,17585.0,17575.0,17585.0,62,22,17580,15,17585,7
2016-11-14 08:34:00,08:34:04,08:34:42,4714,4756,17580.0,15,17585.0,8,17585.0,17585.0,17575.0,17585.0,25,-15,17580,14,17585,41
2016-11-14 08:35:00,08:35:04,08:35:56,4765,4836,17580.0,13,17585.0,52,17580.0,17595.0,17580.0,17590.0,90,50,17585,19,17595,18
2016-11-14 08:36:00,08:36:00,08:36:58,4844,5021,17585.0,9,17595.0,17,17595.0,17615.0,17590.0,17615.0,167,51,17600,41,17615,32
2016-11-14 08:37:00,08:37:01,08:37:59,5028,5169,17605.0,7,17610.0,8,17610.0,17615.0,17610.0,17615.0,209,-19,17615,18,17620,4
2016-11-14 08:38:00,08:38:00,08:38:58,5170,5429,17610.0,10,17615.0,1,17620.0,17630.0,17615.0,17615.0,480,254,17610,13,17620,8
2016-11-14 08:39:00,08:39:03,08:39:50,5441,5630,17615.0,7,17620.0,35,17615.0,17620.0,17600.0,17615.0,248,-25,17610,6,17615,3
2016-11-14 08:40:00,08:40:00,08:40:45,5642,5815,17610.0,15,17615.0,5,17620.0,17630.0,17615.0,17625.0,182,53,17620,26,17625,1
2016-11-14 08:41:00,08:41:00,08:41:58,5824,5955,17620.0,27,17625.0,8,17625.0,17625.0,17620.0,17625.0,88,-15,17625,1,17630,15
2016-11-14 08:42:00,08:42:01,08:42:53,5961,6116,17625.0,2,17630.0,7,17630.0,17635.0,17620.0,17620.0,138,-26,17620,3,17625,7
2016-11-14 08:43:00,08:43:01,08:43:55,6127,6178,17620.0,15,17625.0,11,17625.0,17625.0,17615.0,17615.0,61,-39,17610,12,17615,2
2016-11-14 08:44:00,08:44:01,08:44:56,6191,6275,17605.0,5,17610.0,4,17605.0,17615.0,17600.0,17605.0,80,-22,17605,2,17610,6
2016-11-14 08:45:00,08:45:01,08:45:49,6282,6363,17605.0,3,17610.0,19,17605.0,17610.0,17600.0,17600.0,68,1,17595,23,17600,2
2016-11-14 08:46:00,08:46:22,08:46:50,6384,6456,17595.0,27,17600.0,12,17595.0,17605.0,17595.0,17605.0,111,-18,17600,12,17610,19
2016-11-14 08:47:00,08:47:05,08:47:48,6472,6523,17605.0,11,17610.0,18,17605.0,17610.0,17605.0,17610.0,59,49,17605,15,17610,24
2016-11-14 08:48:00,08:48:15,08:48:58,6529,6596,17605.0,15,17610.0,26,17610.0,17610.0,17600.0,17605.0,63,15,17605,17,17610,45
2016-11-14 08:49:00,08:49:00,08:49:51,6598,6647,17605.0,17,17610.0,48,17610.0,17610.0,17610.0,17610.0,95,95,17605,48,17610,3
2016-11-14 08:50:00,08:50:07,08:50:53,6650,6766,17605.0,48,17610.0,3,17610.0,17620.0,17605.0,17615.0,96,19,17615,15,17620,19
2016-11-14 08:51:00,08:51:02,08:51:53,6773,6899,17615.0,22,17620.0,21,17620.0,17630.0,17605.0,17610.0,196,50,17605,30,17615,92
2016-11-14 08:52:00,08:52:08,08:52:59,6920,6985,17615.0,3,17620.0,23,17615.0,17620.0,17610.0,17615.0,33,-8,17615,50,17620,31
2016-11-14 08:53:00,08:53:00,08:53:58,6989,7154,17615.0,50,17620.0,21,17620.0,17645.0,17620.0,17640.0,238,78,17635,46,17645,20
2016-11-14 08:54:00,08:54:02,08:54:59,7164,7366,17640.0,1,17645.0,24,17640.0,17660.0,17640.0,17650.0,358,95,17645,18,17650,8
2016-11-14 08:55:00,08:55:01,08:55:54,7372,7654,17645.0,19,17650.0,3,17650.0,17650.0,17605.0,17635.0,469,-146,17645,1,17650,9
2016-11-14 08:56:00,08:56:02,08:56:43,7671,7787,17645.0,17,17650.0,11,17645.0,17650.0,17645.0,17645.0,152,-31,17645,13,17650,26
2016-11-14 08:57:00,08:57:23,08:57:28,7807,7814,17645.0,29,17650.0,34,17645.0,17650.0,17645.0,17650.0,14,12,17645,16,17650,21
2016-11-14 08:58:00,08:58:04,08:58:58,7828,7958,17645.0,25,17650.0,45,17645.0,17650.0,17635.0,17635.0,204,-35,17630,4,17635,2
2016-11-14 08:59:00,08:59:00,08:59:53,7961,8041,17630.0,4,17635.0,2,17635.0,17655.0,17630.0,17645.0,105,51,17640,6,17650,8
2016-11-14 09:00:00,09:00:03,09:00:48,8048,8099,17640.0,10,17645.0,2,17640.0,17645.0,17640.0,17645.0,83,-43,17640,14,17650,7
2016-11-14 09:01:00,09:01:01,09:01:50,8124,8226,17640.0,13,17650.0,13,17645.0,17645.0,17635.0,17640.0,91,-46,17635,1,17645,22
2016-11-14 09:02:00,09:02:00,09:02:58,8240,8327,17635.0,4,17640.0,13,17640.0,17655.0,17640.0,17655.0,79,15,17655,7,17660,15
2016-11-14 09:03:00,09:03:17,09:03:51,8343,8462,17655.0,22,17660.0,20,17655.0,17670.0,17655.0,17670.0,156,66,17665,39,17670,43
2016-11-14 09:04:00,09:04:04,09:04:58,8472,8630,17665.0,43,17670.0,49,17665.0,17675.0,17660.0,17675.0,339,-133,17675,9,17680,130
2016-11-14 09:05:00,09:05:01,09:05:57,8638,8795,17675.0,46,17680.0,130,17680.0,17680.0,17665.0,17670.0,298,52,17665,20,17670,15
2016-11-14 09:06:00,09:06:04,09:06:54,8800,8882,17665.0,20,17670.0,15,17670.0,17670.0,17660.0,17660.0,58,-4,17660,15,17665,21
2016-11-14 09:07:00,09:07:00,09:07:54,8886,8961,17660.0,15,17665.0,16,17665.0,17665.0,17650.0,17655.0,76,-9,17650,4,17655,17
2016-11-14 09:08:00,09:08:01,09:08:53,8963,9074,17650.0,7,17655.0,17,17650.0,17665.0,17650.0,17665.0,110,32,17660,17,17670,21
2016-11-14 09:09:00,09:09:05,09:09:59,9090,9121,17660.0,18,17665.0,1,17660.0,17660.0,17660.0,17660.0,28,-8,17660,6,17665,7
2016-11-14 09:10:00,09:10:08,09:10:56,9129,9210,17660.0,22,17665.0,6,17660.0,17660.0,17650.0,17655.0,70,-35,17655,10,17660,41
2016-11-14 09:11:00,09:11:00,09:11:44,9215,9307,17655.0,10,17660.0,35,17655.0,17670.0,17655.0,17660.0,111,-2,17655,8,17665,42
2016-11-14 09:12:00,09:12:04,09:12:47,9328,9369,17655.0,20,17665.0,53,17655.0,17670.0,17655.0,17670.0,61,29,17665,13,17670,4
2016-11-14 09:13:00,09:13:03,09:13:59,9381,9491,17665.0,28,17670.0,9,17670.0,17670.0,17665.0,17665.0,129,46,17665,9,17670,31
2016-11-14 09:14:00,09:14:02,09:14:57,9495,9605,17665.0,12,17670.0,31,17665.0,17670.0,17650.0,17655.0,146,34,17650,4,17660,18
2016-11-14 09:15:00,09:15:08,09:15:57,9616,9691,17655.0,10,17660.0,20,17660.0,17660.0,17640.0,17640.0,70,-42,17635,16,17645,13
2016-11-14 09:16:00,09:16:01,09:16:56,9700,9799,17635.0,1,17640.0,1,17640.0,17645.0,17635.0,17635.0,76,9,17635,18,17645,25
2016-11-14 09:17:00,09:17:03,09:17:59,9809,9973,17640.0,7,17645.0,31,17645.0,17645.0,17635.0,17645.0,277,-92,17640,56,17645,17
2016-11-14 09:18:00,09:18:03,09:18:59,9977,10100,17640.0,56,17645.0,12,17645.0,17650.0,17635.0,17640.0,150,-84,17635,13,17645,17
2016-11-14 09:19:00,09:19:16,09:19:57,10117,10179,17635.0,24,17645.0,9,17645.0,17650.0,17640.0,17645.0,58,4,17640,18,17645,17
2016-11-14 09:20:00,09:20:02,09:20:58,10182,10294,17640.0,16,17645.0,21,17645.0,17650.0,17640.0,17645.0,80,-25,17640,6,17645,15
2016-11-14 09:21:00,09:21:00,09:21:59,10298,10388,17640.0,12,17645.0,15,17645.0,17655.0,17645.0,17655.0,97,96,17650,9,17655,32
2016-11-14 09:22:00,09:22:08,09:22:59,10396,10493,17650.0,19,17655.0,35,17650.0,17655.0,17650.0,17655.0,103,-11,17650,21,17655,9
2016-11-14 09:23:00,09:23:00,09:23:58,10494,10629,17650.0,15,17655.0,21,17655.0,17665.0,17650.0,17650.0,101,27,17640,14,17650,1
2016-11-14 09:24:00,09:24:04,09:24:47,10640,10730,17640.0,14,17650.0,43,17645.0,17655.0,17630.0,17655.0,61,28,17650,9,17660,26
2016-11-14 09:25:00,09:25:01,09:25:59,10744,10851,17655.0,13,17660.0,13,17655.0,17660.0,17650.0,17660.0,218,-24,17655,84,17665,15
2016-11-14 09:26:00,09:26:04,09:26:40,10861,10914,17660.0,19,17665.0,8,17665.0,17675.0,17665.0,17665.0,97,63,17660,5,17670,7
2016-11-14 09:27:00,09:27:00,09:27:53,10929,11026,17660.0,9,17665.0,1,17665.0,17665.0,17650.0,17660.0,138,-87,17655,72,17665,20
2016-11-14 09:28:00,09:28:18,09:28:57,11045,11106,17655.0,88,17660.0,3,17660.0,17680.0,17660.0,17675.0,88,-14,17670,67,17680,48
2016-11-14 09:29:00,09:29:09,09:29:55,11117,11190,17670.0,69,17675.0,26,17670.0,17670.0,17660.0,17665.0,98,-64,17665,10,17670,22
2016-11-14 09:30:00,09:30:00,09:30:48,11195,11255,17665.0,28,17670.0,23,17665.0,17670.0,17665.0,17665.0,42,-8,17655,92,17665,11
2016-11-14 09:31:00,09:31:02,09:31:59,11265,11362,17660.0,68,17665.0,5,17660.0,17660.0,17655.0,17655.0,158,-142,17655,14,17660,15
2016-11-14 09:32:00,09:32:07,09:32:59,11370,11456,17655.0,14,17660.0,24,17655.0,17655.0,17650.0,17650.0,101,-69,17650,58,17655,23
2016-11-14 09:33:00,09:33:16,09:33:45,11471,11521,17650.0,69,17655.0,22,17655.0,17655.0,17640.0,17650.0,110,-85,17645,10,17655,15
2016-11-14 09:34:00,09:34:37,09:34:50,11540,11576,17650.0,21,17655.0,27,17650.0,17650.0,17650.0,17650.0,41,-41,17650,7,17655,32
2016-11-14 09:35:00,09:35:13,09:35:38,11585,11638,17650.0,24,17655.0,33,17650.0,17650.0,17650.0,17650.0,129,7,17650,10,17655,19
2016-11-14 09:36:00,09:36:30,09:36:33,11661,11669,17650.0,26,17655.0,67,17655.0,17655.0,17655.0,17655.0,15,15,17650,16,17655,52
2016-11-14 09:37:00,09:37:01,09:37:19,11684,11693,17650.0,29,17655.0,60,17655.0,17655.0,17655.0,17655.0,11,11,17650,20,17655,71
2016-11-14 09:38:00,09:38:02,09:38:43,11701,11789,17650.0,35,17655.0,71,17650.0,17660.0,17650.0,17655.0,162,14,17650,14,17655,1
2016-11-14 09:39:00,09:39:00,09:39:53,11810,11882,17650.0,36,17655.0,29,17655.0,17655.0,17650.0,17655.0,92,0,17650,22,17660,17
2016-11-14 09:40:00,09:40:17,09:40:37,11900,11926,17655.0,6,17660.0,16,17655.0,17660.0,17655.0,17655.0,10,-4,17650,37,17660,17
2016-11-14 09:41:00,09:41:01,09:41:39,11933,11992,17655.0,16,17660.0,16,17655.0,17660.0,17650.0,17650.0,50,-2,17650,2,17655,13
2016-11-14 09:42:00,09:42:11,09:42:55,12005,12054,17645.0,72,17655.0,19,17645.0,17655.0,17645.0,17650.0,43,3,17645,55,17655,26
2016-11-14 09:43:00,09:43:00,09:43:55,12059,12114,17645.0,55,17650.0,4,17650.0,17650.0,17645.0,17650.0,64,17,17645,45,17650,40
2016-11-14 09:44:00,09:44:03,09:44:42,12119,12195,17645.0,45,17650.0,39,17645.0,17650.0,17645.0,17645.0,200,-12,17640,9,17645,2
2016-11-14 09:45:00,09:45:25,09:45:56,12215,12287,17640.0,23,17645.0,32,17640.0,17650.0,17640.0,17640.0,124,53,17635,35,17640,5
2016-11-14 09:46:00,09:46:00,09:46:59,12293,12419,17635.0,37,17640.0,5,17640.0,17650.0,17635.0,17650.0,176,-2,17645,13,17650,12
2016-11-14 09:47:00,09:47:08,09:47:44,12437,12479,17645.0,6,17650.0,4,17645.0,17650.0,17645.0,17645.0,38,-26,17645,1,17650,11
2016-11-14 09:48:00,09:48:03,09:48:44,12490,12511,17645.0,15,17650.0,12,17645.0,17650.0,17645.0,17645.0,16,0,17645,4,17650,16
2016-11-14 09:49:00,09:49:01,09:49:52,12523,12600,17645.0,19,17650.0,23,17645.0,17655.0,17645.0,17655.0,61,8,17650,8,17660,39
2016-11-14 09:50:00,09:50:18,09:50:57,12615,12661,17650.0,17,17655.0,2,17655.0,17655.0,17650.0,17650.0,36,16,17650,7,17655,8
2016-11-14 09:51:00,09:51:06,09:51:16,12670,12689,17650.0,19,17655.0,2,17650.0,17650.0,17640.0,17640.0,23,-23,17640,3,17645,6
2016-11-14 09:52:00,09:52:02,09:52:51,12700,12758,17640.0,14,17645.0,18,17640.0,17645.0,17640.0,17640.0,37,-5,17635,14,17645,17
2016-11-14 09:53:00,09:53:02,09:53:54,12769,12853,17635.0,10,17640.0,5,17635.0,17635.0,17625.0,17630.0,151,-29,17630,2,17635,16
2016-11-14 09:54:00,09:54:04,09:54:41,12856,12906,17630.0,12,17635.0,14,17630.0,17640.0,17630.0,17640.0,101,85,17635,8,17645,18
2016-11-14 09:55:00,09:55:03,09:55:55,12918,12985,17635.0,20,17640.0,3,17635.0,17635.0,17630.0,17630.0,117,-31,17625,22,17635,12
2016-11-14 09:56:00,09:56:19,09:56:52,12998,13049,17625.0,33,17630.0,12,17625.0,17625.0,17615.0,17615.0,99,-34,17615,13,17620,19
2016-11-14 09:57:00,09:57:05,09:57:58,13057,13165,17615.0,30,17620.0,19,17615.0,17630.0,17610.0,17630.0,92,-38,17620,15,17630,8
2016-11-14 09:58:00,09:58:21,09:58:51,13176,13221,17625.0,1,17630.0,11,17630.0,17635.0,17620.0,17620.0,36,-17,17615,12,17625,6
2016-11-14 09:59:00,09:59:06,09:59:59,13230,13275,17620.0,3,17625.0,5,17620.0,17620.0,17615.0,17615.0,34,-22,17610,17,17620,21
2016-11-14 10:00:00,10:00:07,10:00:59,13288,13396,17610.0,31,17615.0,16,17615.0,17635.0,17615.0,17635.0,90,55,17630,4,17635,2
2016-11-14 10:01:00,10:01:00,10:01:56,13401,13478,17630.0,3,17635.0,4,17630.0,17630.0,17625.0,17630.0,75,43,17630,5,17635,18
2016-11-14 10:02:00,10:02:00,10:02:53,13486,13634,17630.0,15,17635.0,7,17635.0,17645.0,17630.0,17635.0,140,-45,17625,16,17635,1
2016-11-14 10:03:00,10:03:03,10:03:56,13647,13731,17630.0,15,17635.0,13,17630.0,17635.0,17625.0,17635.0,61,-7,17630,16,17635,29
2016-11-14 10:04:00,10:04:02,10:04:59,13735,13797,17630.0,16,17635.0,39,17635.0,17635.0,17625.0,17625.0,54,8,17620,23,17625,51
2016-11-14 10:05:00,10:05:00,10:05:54,13800,13927,17620.0,23,17625.0,51,17625.0,17635.0,17620.0,17635.0,190,0,17630,7,17635,26
2016-11-14 10:06:00,10:06:00,10:06:52,13933,14035,17630.0,16,17635.0,26,17635.0,17640.0,17635.0,17640.0,100,58,17640,3,17645,47
2016-11-14 10:07:00,10:07:18,10:07:26,14048,14069,17640.0,20,17645.0,43,17640.0,17640.0,17640.0,17640.0,27,-24,17635,22,17645,53
2016-11-14 10:08:00,10:08:12,10:08:49,14095,14157,17635.0,26,17640.0,16,17640.0,17640.0,17635.0,17640.0,135,87,17640,2,17645,37
2016-11-14 10:09:00,10:09:09,10:09:48,14169,14216,17640.0,24,17645.0,39,17645.0,17645.0,17640.0,17640.0,94,-4,17635,12,17640,11
2016-11-14 10:10:00,10:10:05,10:10:50,14225,14259,17635.0,11,17640.0,3,17640.0,17640.0,17635.0,17635.0,25,-13,17630,22,17635,1
2016-11-14 10:11:00,10:11:04,10:11:52,14263,14325,17630.0,22,17635.0,4,17635.0,17645.0,17635.0,17645.0,41,5,17645,1,17650,19
2016-11-14 10:12:00,10:12:07,10:12:59,14348,14377,17645.0,21,17650.0,28,17645.0,17650.0,17645.0,17645.0,18,10,17645,21,17650,25
2016-11-14 10:13:00,10:13:02,10:13:52,14382,14439,17645.0,21,17650.0,25,17650.0,17650.0,17645.0,17645.0,47,13,17645,2,17650,16
2016-11-14 10:14:00,10:14:00,10:14:56,14445,14492,17645.0,15,17650.0,12,17645.0,17650.0,17635.0,17635.0,43,-35,17630,33,17640,23
2016-11-14 10:15:00,10:15:02,10:15:40,14503,14527,17635.0,1,17640.0,10,17640.0,17640.0,17635.0,17635.0,14,-11,17630,30,17640,20
2016-11-14 10:16:00,10:16:02,10:16:52,14541,14575,17635.0,16,17640.0,15,17640.0,17640.0,17635.0,17635.0,36,8,17635,17,17640,17
2016-11-14 10:17:00,10:17:03,10:17:47,14580,14641,17635.0,11,17640.0,19,17640.0,17645.0,17635.0,17640.0,56,23,17640,12,17645,8
2016-11-14 10:18:00,10:18:04,10:18:57,14655,14728,17640.0,30,17645.0,8,17645.0,17650.0,17640.0,17650.0,47,45,17650,4,17655,19
2016-11-14 10:19:00,10:19:00,10:19:32,14740,14836,17650.0,25,17655.0,13,17655.0,17655.0,17650.0,17650.0,135,-91,17645,24,17650,17
2016-11-14 10:20:00,10:20:02,10:20:46,14843,14912,17645.0,30,17650.0,17,17650.0,17655.0,17645.0,17655.0,43,8,17655,21,17660,31
2016-11-14 10:21:00,10:21:04,10:21:48,14920,14993,17655.0,83,17660.0,31,17660.0,17665.0,17655.0,17655.0,83,2,17650,65,17660,17
2016-11-14 10:22:00,10:22:10,10:22:37,15004,15056,17655.0,2,17660.0,20,17655.0,17655.0,17645.0,17645.0,88,-86,17640,11,17650,26
2016-11-14 10:23:00,10:23:10,10:23:51,15070,15101,17645.0,4,17650.0,18,17645.0,17650.0,17645.0,17645.0,18,-14,17640,12,17645,2
2016-11-14 10:24:00,10:24:00,10:24:44,15108,15174,17640.0,13,17645.0,13,17645.0,17645.0,17630.0,17630.0,58,-44,17625,17,17630,2
2016-11-14 10:25:00,10:25:25,10:25:55,15196,15246,17630.0,21,17635.0,8,17635.0,17640.0,17630.0,17635.0,40,10,17630,17,17640,19
2016-11-14 10:26:00,10:26:04,10:26:57,15257,15307,17635.0,2,17640.0,12,17635.0,17640.0,17635.0,17635.0,15,9,17630,21,17640,19
2016-11-14 10:27:00,10:27:00,10:27:42,15309,15333,17630.0,21,17640.0,17,17635.0,17640.0,17635.0,17640.0,14,-7,17635,20,17640,22
2016-11-14 10:28:00,10:28:03,10:28:57,15341,15406,17635.0,35,17640.0,18,17635.0,17640.0,17635.0,17640.0,54,-22,17640,9,17645,21
2016-11-14 10:29:00,10:29:02,10:29:58,15417,15451,17640.0,33,17645.0,17,17645.0,17650.0,17640.0,17640.0,22,20,17640,35,17645,6
2016-11-14 10:30:00,10:30:01,10:30:58,15454,15557,17640.0,35,17645.0,6,17645.0,17655.0,17645.0,17650.0,67,-29,17645,5,17650,5
2016-11-14 10:31:00,10:31:18,10:31:59,15568,15579,17650.0,2,17655.0,16,17655.0,17655.0,17655.0,17655.0,4,4,17645,6,17655,22
2016-11-14 10:32:00,10:32:03,10:32:42,15581,15628,17650.0,4,17655.0,22,17650.0,17655.0,17645.0,17655.0,72,50,17650,7,17655,6
2016-11-14 10:33:00,10:33:05,10:33:56,15642,15686,17650.0,10,17655.0,36,17655.0,17655.0,17655.0,17655.0,52,19,17650,15,17655,1
2016-11-14 10:34:00,10:34:00,10:34:50,15689,15719,17650.0,15,17655.0,1,17655.0,17660.0,17655.0,17655.0,9,3,17650,10,17655,5
2016-11-14 10:35:00,10:35:04,10:35:45,15722,15739,17650.0,9,17655.0,6,17655.0,17655.0,17655.0,17655.0,7,7,17655,1,17660,38
2016-11-14 10:36:00,10:36:18,10:36:39,15745,15760,17655.0,3,17660.0,39,17655.0,17655.0,17655.0,17655.0,7,-3,17650,9,17655,4
2016-11-14 10:37:00,10:37:06,10:37:59,15768,15792,17650.0,20,17655.0,2,17650.0,17660.0,17650.0,17660.0,7,3,17655,15,17660,33
2016-11-14 10:38:00,10:38:31,10:38:55,15796,15827,17655.0,15,17660.0,34,17660.0,17660.0,17660.0,17660.0,41,25,17655,9,17660,1
2016-11-14 10:39:00,10:39:01,10:39:56,15830,15872,17655.0,9,17660.0,1,17660.0,17660.0,17650.0,17655.0,27,-3,17650,13,17660,17
2016-11-14 10:40:00,10:40:00,10:40:13,15881,15890,17655.0,1,17660.0,5,17655.0,17655.0,17655.0,17655.0,3,1,17650,7,17655,5
2016-11-14 10:41:00,10:41:25,10:41:25,15909,15909,17650.0,7,17655.0,32,17650.0,17650.0,17650.0,17650.0,2,-2,17650,6,17655,34
2016-11-14 10:42:00,10:42:00,10:42:13,15917,15938,17650.0,7,17655.0,38,17650.0,17650.0,17645.0,17650.0,17,1,17650,2,17655,31
2016-11-14 10:43:00,10:43:04,10:43:04,15952,15952,17645.0,15,17655.0,29,17650.0,17650.0,17650.0,17650.0,2,0,17645,16,17655,31
2016-11-14 10:44:00,10:44:07,10:44:50,15971,16004,17650.0,19,17655.0,33,17655.0,17655.0,17650.0,17655.0,31,27,17650,21,17660,13
2016-11-14 10:45:00,10:45:29,10:45:35,16018,16035,17655.0,12,17660.0,9,17660.0,17665.0,17660.0,17660.0,17,1,17655,13,17660,3
2016-11-14 10:46:00,10:46:34,10:46:34,16052,16053,17660.0,15,17665.0,20,17665.0,17665.0,17665.0,17665.0,2,2,17660,16,17665,18
2016-11-14 10:47:00,10:47:02,10:47:50,16061,16096,17660.0,17,17665.0,18,17660.0,17665.0,17660.0,17660.0,16,-12,17655,11,17660,3
2016-11-14 10:48:00,10:48:16,10:48:18,16117,16121,17655.0,7,17660.0,4,17655.0,17655.0,17655.0,17655.0,2,0,17650,21,17660,12
2016-11-14 10:49:00,10:49:08,10:49:51,16138,16160,17650.0,19,17655.0,8,17655.0,17655.0,17650.0,17650.0,9,5,17650,15,17655,3
2016-11-14 10:50:00,10:50:00,10:50:00,0,0,0.0,0,0.0,0,17650.0,17650.0,17650.0,17650.0,0,0,0,0,0,0
2016-11-14 10:51:00,10:51:50,10:51:50,16184,16185,17650.0,20,17655.0,5,17650.0,17650.0,17650.0,17650.0,2,-2,17650,26,17655,7
2016-11-14 10:52:00,10:52:06,10:52:38,16192,16213,17650.0,38,17655.0,7,17650.0,17655.0,17650.0,17655.0,16,2,17655,10,17660,16
2016-11-14 10:53:00,10:53:05,10:53:27,16216,16226,17655.0,10,17660.0,16,17655.0,17660.0,17655.0,17655.0,5,-3,17655,4,17660,12
2016-11-14 10:54:00,10:54:32,10:54:59,16241,16286,17655.0,12,17660.0,14,17655.0,17655.0,17650.0,17650.0,109,-15,17645,12,17650,5
2016-11-14 10:55:00,10:55:09,10:55:58,16294,16318,17645.0,7,17650.0,6,17650.0,17650.0,17650.0,17650.0,13,13,17650,43,17655,36
2016-11-14 10:56:00,10:56:00,10:56:17,16321,16332,17650.0,43,17655.0,36,17650.0,17655.0,17650.0,17655.0,6,-2,17650,48,17655,30
2016-11-14 10:57:00,10:57:01,10:57:31,16337,16354,17650.0,53,17655.0,36,17650.0,17655.0,17650.0,17655.0,18,14,17650,50,17655,14
2016-11-14 10:58:00,10:58:02,10:58:14,16358,16380,17650.0,50,17655.0,13,17655.0,17655.0,17650.0,17650.0,66,-42,17645,19,17655,16
2016-11-14 10:59:00,10:59:05,10:59:23,16405,16419,17650.0,16,17655.0,18,17655.0,17655.0,17655.0,17655.0,14,13,17650,23,17655,64
2016-11-14 11:00:00,11:00:14,11:00:58,16439,16484,17650.0,29,17655.0,66,17655.0,17665.0,17655.0,17660.0,48,28,17655,13,17660,19
2016-11-14 11:01:00,11:01:05,11:01:57,16488,16521,17655.0,13,17660.0,20,17660.0,17660.0,17655.0,17660.0,46,18,17655,11,17665,15
2016-11-14 11:02:00,11:02:13,11:02:38,16528,16541,17655.0,14,17660.0,2,17660.0,17660.0,17660.0,17660.0,13,11,17660,2,17665,17
2016-11-14 11:03:00,11:03:32,11:03:32,16551,16554,17660.0,10,17665.0,20,17665.0,17665.0,17665.0,17665.0,5,5,17660,11,17665,19
2016-11-14 11:04:00,11:04:00,11:04:00,0,0,0.0,0,0.0,0,17665.0,17665.0,17665.0,17665.0,0,0,0,0,0,0
2016-11-14 11:05:00,11:05:08,11:05:53,16572,16591,17660.0,18,17665.0,18,17660.0,17665.0,17660.0,17665.0,5,-1,17660,16,17665,18
2016-11-14 11:06:00,11:06:03,11:06:48,16597,16642,17660.0,15,17665.0,17,17660.0,17665.0,17660.0,17665.0,21,-4,17665,3,17670,64
2016-11-14 11:07:00,11:07:56,11:07:56,16658,16660,17665.0,3,17670.0,76,17665.0,17665.0,17665.0,17665.0,3,-3,17660,13,17670,78
2016-11-14 11:08:00,11:08:00,11:08:38,16667,16720,17660.0,9,17665.0,6,17660.0,17660.0,17655.0,17660.0,30,-14,17655,10,17660,4
2016-11-14 11:09:00,11:09:01,11:09:49,16731,16746,17655.0,4,17660.0,17,17660.0,17660.0,17655.0,17655.0,6,-4,17650,24,17660,20
2016-11-14 11:10:00,11:10:00,11:10:00,0,0,0.0,0,0.0,0,17655.0,17655.0,17655.0,17655.0,0,0,0,0,0,0
2016-11-14 11:11:00,11:11:35,11:11:56,16775,16798,17655.0,10,17660.0,21,17655.0,17660.0,17655.0,17660.0,21,17,17660,8,17665,5
2016-11-14 11:12:00,11:12:03,11:12:33,16806,16834,17660.0,14,17665.0,5,17665.0,17670.0,17665.0,17670.0,15,14,17660,21,17670,71
2016-11-14 11:13:00,11:13:22,11:13:56,16853,16870,17665.0,12,17670.0,71,17665.0,17665.0,17665.0,17665.0,13,-8,17660,15,17665,2
2016-11-14 11:14:00,11:14:43,11:14:56,16878,16900,17660.0,15,17665.0,3,17665.0,17665.0,17655.0,17655.0,26,-18,17655,5,17660,7
2016-11-14 11:15:00,11:15:06,11:15:54,16911,16956,17650.0,21,17655.0,3,17655.0,17660.0,17655.0,17660.0,23,5,17655,5,17660,6
2016-11-14 11:16:00,11:16:03,11:16:27,16961,16970,17655.0,5,17660.0,6,17660.0,17660.0,17655.0,17655.0,9,3,17650,21,17660,13
2016-11-14 11:17:00,11:17:29,11:17:53,16982,17007,17650.0,19,17655.0,4,17650.0,17650.0,17645.0,17645.0,26,-24,17645,2,17650,9
2016-11-14 11:18:00,11:18:56,11:18:56,17028,17033,17645.0,10,17650.0,11,17645.0,17645.0,17645.0,17645.0,10,-10,17640,31,17650,16
2016-11-14 11:19:00,11:19:38,11:19:45,17042,17056,17645.0,5,17650.0,20,17645.0,17650.0,17645.0,17650.0,22,20,17645,8,17655,17
2016-11-14 11:20:00,11:20:16,11:20:16,17067,17071,17645.0,13,17650.0,9,17650.0,17650.0,17650.0,17650.0,7,7,17645,10,17655,16
2016-11-14 11:21:00,11:21:03,11:21:31,17089,17108,17645.0,11,17650.0,25,17650.0,17650.0,17650.0,17650.0,26,20,17650,2,17655,16
2016-11-14 11:22:00,11:22:09,11:22:49,17115,17143,17650.0,4,17655.0,16,17650.0,17655.0,17650.0,17655.0,10,1,17650,14,17655,1
2016-11-14 11:23:00,11:23:24,11:23:56,17160,17163,17655.0,8,17660.0,29,17655.0,17655.0,17655.0,17655.0,2,-2,17655,3,17660,28
2016-11-14 11:24:00,11:24:09,11:24:48,17166,17177,17655.0,4,17660.0,29,17655.0,17655.0,17650.0,17650.0,6,-6,17650,11,17655,3
2016-11-14 11:25:00,11:25:00,11:25:27,17183,17204,17650.0,5,17655.0,5,17655.0,17655.0,17650.0,17655.0,4,2,17650,19,17655,3
2016-11-14 11:26:00,11:26:25,11:26:30,17221,17227,17650.0,24,17655.0,6,17655.0,17655.0,17655.0,17655.0,7,7,17655,5,17660,30
2016-11-14 11:27:00,11:27:36,11:27:40,17248,17263,17650.0,20,17655.0,7,17650.0,17650.0,17650.0,17650.0,24,-12,17650,1,17655,13
2016-11-14 11:28:00,11:28:30,11:28:48,17287,17299,17650.0,5,17655.0,12,17655.0,17655.0,17655.0,17655.0,6,6,17655,2,17660,27
2016-11-14 11:29:00,11:29:25,11:29:52,17310,17330,17655.0,2,17660.0,35,17655.0,17655.0,17655.0,17655.0,3,-1,17650,14,17655,8
2016-11-14 11:30:00,11:30:00,11:30:58,17337,17471,17650.0,6,17655.0,16,17655.0,17670.0,17655.0,17670.0,279,79,17665,24,17670,1
2016-11-14 11:31:00,11:31:02,11:31:59,17475,17587,17665.0,27,17670.0,11,17670.0,17675.0,17670.0,17670.0,120,112,17670,18,17675,20
2016-11-14 11:32:00,11:32:01,11:32:41,17595,17634,17670.0,23,17675.0,17,17670.0,17675.0,17670.0,17675.0,55,15,17670,23,17680,67
2016-11-14 11:33:00,11:33:01,11:33:50,17643,17714,17670.0,24,17675.0,19,17670.0,17670.0,17665.0,17670.0,59,-15,17665,10,17670,4
2016-11-14 11:34:00,11:34:20,11:34:54,17734,17779,17670.0,20,17675.0,27,17670.0,17670.0,17670.0,17670.0,27,-22,17665,7,17670,14
2016-11-14 11:35:00,11:35:09,11:35:57,17793,17854,17665.0,21,17670.0,20,17670.0,17675.0,17670.0,17675.0,51,23,17675,6,17680,62
2016-11-14 11:36:00,11:36:01,11:36:53,17860,17979,17675.0,9,17680.0,60,17675.0,17690.0,17675.0,17685.0,174,114,17680,88,17685,8
2016-11-14 11:37:00,11:37:01,11:37:59,17988,18107,17680.0,18,17685.0,19,17680.0,17680.0,17670.0,17680.0,140,-7,17675,21,17680,6
2016-11-14 11:38:00,11:38:07,11:38:45,18115,18162,17675.0,34,17680.0,12,17680.0,17685.0,17675.0,17675.0,52,7,17670,21,17675,24
2016-11-14 11:39:00,11:39:03,11:39:59,18178,18326,17670.0,31,17675.0,7,17675.0,17680.0,17670.0,17680.0,211,71,17675,12,17685,31
2016-11-14 11:40:00,11:40:01,11:40:55,18334,18401,17680.0,6,17685.0,25,17680.0,17680.0,17675.0,17680.0,44,-14,17675,17,17680,56
2016-11-14 11:41:00,11:41:03,11:41:57,18410,18518,17675.0,18,17680.0,36,17680.0,17680.0,17665.0,17670.0,74,-32,17670,14,17675,18
2016-11-14 11:42:00,11:42:06,11:42:55,18528,18602,17670.0,25,17675.0,16,17675.0,17685.0,17675.0,17685.0,40,36,17680,22,17685,42
2016-11-14 11:43:00,11:43:02,11:43:59,18608,18751,17680.0,24,17685.0,42,17680.0,17690.0,17680.0,17685.0,225,81,17680,29,17685,38
2016-11-14 11:44:00,11:44:07,11:44:43,18757,18875,17680.0,30,17685.0,25,17685.0,17690.0,17680.0,17685.0,247,-122,17680,10,17685,9
2016-11-14 11:45:00,11:45:03,11:45:59,18896,18971,17680.0,26,17685.0,26,17685.0,17695.0,17685.0,17690.0,41,37,17685,20,17690,56
2016-11-14 11:46:00,11:46:00,11:46:55,18975,19077,17685.0,20,17690.0,60,17690.0,17690.0,17680.0,17685.0,129,11,17680,23,17685,37
2016-11-14 11:47:00,11:47:03,11:47:50,19081,19161,17680.0,24,17685.0,37,17685.0,17685.0,17680.0,17680.0,74,-9,17675,36,17685,63
2016-11-14 11:48:00,11:48:05,11:48:55,19174,19222,17680.0,28,17685.0,59,17680.0,17685.0,17680.0,17685.0,60,0,17680,45,17685,43
2016-11-14 11:49:00,11:49:03,11:49:59,19226,19271,17680.0,46,17685.0,43,17685.0,17685.0,17680.0,17685.0,20,18,17680,22,17685,30
2016-11-14 11:50:00,11:50:02,11:50:55,19275,19335,17680.0,22,17685.0,34,17680.0,17685.0,17675.0,17675.0,53,-23,17670,10,17675,2
2016-11-14 11:51:00,11:51:03,11:51:59,19341,19404,17670.0,12,17675.0,3,17675.0,17675.0,17670.0,17670.0,41,-5,17665,21,17670,8
2016-11-14 11:52:00,11:52:02,11:52:55,19407,19494,17665.0,21,17670.0,8,17670.0,17675.0,17660.0,17675.0,83,-3,17670,20,17675,5
2016-11-14 11:53:00,11:53:03,11:53:56,19501,19567,17670.0,23,17675.0,5,17675.0,17680.0,17670.0,17670.0,47,-19,17665,8,17670,16
2016-11-14 11:54:00,11:54:03,11:54:57,19574,19624,17665.0,11,17670.0,3,17670.0,17675.0,17670.0,17675.0,23,21,17670,19,17675,8
2016-11-14 11:55:00,11:55:11,11:55:57,19632,19680,17670.0,22,17675.0,11,17675.0,17680.0,17670.0,17680.0,26,12,17675,29,17680,6
2016-11-14 11:56:00,11:56:00,11:56:57,19686,19739,17675.0,33,17680.0,3,17680.0,17685.0,17680.0,17680.0,37,3,17680,10,17685,27
2016-11-14 11:57:00,11:57:07,11:57:58,19746,19805,17680.0,14,17685.0,31,17680.0,17680.0,17675.0,17675.0,46,-9,17670,26,17680,22
2016-11-14 11:58:00,11:58:06,11:58:57,19808,19845,17670.0,26,17680.0,22,17675.0,17680.0,17675.0,17675.0,19,17,17670,24,17675,11
2016-11-14 11:59:00,11:59:12,11:59:47,19852,19895,17670.0,26,17675.0,13,17675.0,17675.0,17670.0,17670.0,44,-2,17665,14,17675,22
2016-11-14 12:00:00,12:00:03,12:00:59,19905,19950,17665.0,19,17670.0,4,17670.0,17675.0,17670.0,17670.0,27,27,17665,17,17675,17
2016-11-14 12:01:00,12:01:07,12:01:57,19959,19989,17670.0,2,17675.0,26,17670.0,17670.0,17670.0,17670.0,18,-8,17665,31,17670,28
2016-11-14 12:02:00,12:02:12,12:02:57,19994,20043,17665.0,33,17670.0,30,17670.0,17670.0,17660.0,17660.0,52,-40,17655,29,17660,14
2016-11-14 12:03:00,12:03:05,12:03:54,20050,20158,17655.0,34,17660.0,18,17655.0,17655.0,17650.0,17650.0,183,5,17645,16,17655,39
2016-11-14 12:04:00,12:04:06,12:04:57,20164,20253,17650.0,9,17655.0,38,17650.0,17660.0,17650.0,17660.0,61,-14,17655,21,17660,17
2016-11-14 12:05:00,12:05:03,12:05:57,20264,20345,17655.0,25,17660.0,10,17660.0,17665.0,17660.0,17665.0,82,26,17665,9,17670,18
2016-11-14 12:06:00,12:06:04,12:06:50,20350,20405,17665.0,11,17670.0,20,17665.0,17670.0,17665.0,17665.0,39,-15,17660,18,17665,5
2016-11-14 12:07:00,12:07:05,12:07:57,20417,20460,17665.0,5,17670.0,24,17670.0,17670.0,17670.0,17670.0,28,28,17665,28,17670,7
2016-11-14 12:08:00,12:08:12,12:08:57,20471,20510,17665.0,30,17670.0,10,17670.0,17670.0,17670.0,17670.0,21,20,17665,30,17670,4
2016-11-14 12:09:00,12:09:06,12:09:57,20516,20593,17665.0,33,17670.0,6,17665.0,17665.0,17660.0,17660.0,73,-65,17655,15,17660,10
2016-11-14 12:10:00,12:10:02,12:10:57,20600,20643,17655.0,17,17660.0,11,17660.0,17665.0,17660.0,17660.0,32,32,17655,18,17660,2
2016-11-14 12:11:00,12:11:12,12:11:57,20657,20693,17655.0,30,17660.0,18,17660.0,17660.0,17655.0,17660.0,20,18,17655,28,17660,21
2016-11-14 12:12:00,12:12:03,12:12:57,20699,20769,17655.0,31,17660.0,22,17660.0,17660.0,17655.0,17655.0,62,2,17650,37,17655,2
2016-11-14 12:13:00,12:13:01,12:13:57,20774,20831,17650.0,40,17655.0,2,17655.0,17665.0,17655.0,17665.0,31,29,17660,28,17665,6
2016-11-14 12:14:00,12:14:01,12:14:58,20837,20931,17660.0,30,17665.0,6,17665.0,17670.0,17665.0,17665.0,70,12,17660,47,17665,6
2016-11-14 12:15:00,12:15:03,12:15:52,20937,21018,17660.0,47,17665.0,9,17660.0,17665.0,17660.0,17660.0,91,-21,17660,13,17665,20
2016-11-14 12:16:00,12:16:03,12:16:57,21033,21095,17660.0,17,17665.0,28,17660.0,17665.0,17660.0,17665.0,27,1,17660,38,17665,23
2016-11-14 12:17:00,12:17:05,12:17:57,21104,21157,17660.0,40,17665.0,28,17665.0,17665.0,17665.0,17665.0,31,31,17660,41,17665,8
2016-11-14 12:18:00,12:18:09,12:18:57,21168,21261,17660.0,48,17665.0,9,17665.0,17670.0,17665.0,17665.0,75,1,17660,30,17670,40
2016-11-14 12:19:00,12:19:00,12:19:57,21266,21329,17660.0,30,17665.0,6,17665.0,17665.0,17660.0,17660.0,47,-29,17655,32,17660,34
2016-11-14 12:20:00,12:20:12,12:20:57,21342,21387,17655.0,35,17660.0,34,17660.0,17660.0,17655.0,17660.0,19,17,17655,37,17660,27
2016-11-14 12:21:00,12:21:05,12:21:57,21395,21450,17655.0,51,17660.0,25,17655.0,17665.0,17655.0,17665.0,30,28,17660,21,17665,29
2016-11-14 12:22:00,12:22:12,12:22:57,21467,21505,17660.0,28,17665.0,30,17665.0,17665.0,17665.0,17665.0,18,18,17660,37,17665,31
2016-11-14 12:23:00,12:23:04,12:23:57,21513,21559,17660.0,33,17665.0,33,17660.0,17665.0,17660.0,17665.0,30,26,17660,20,17665,16
2016-11-14 12:24:00,12:24:12,12:24:57,21573,21628,17660.0,32,17665.0,26,17665.0,17665.0,17660.0,17660.0,32,-20,17655,46,17660,18
2016-11-14 12:25:00,12:25:03,12:25:57,21632,21714,17655.0,48,17660.0,18,17655.0,17660.0,17655.0,17655.0,65,-27,17650,32,17660,23
2016-11-14 12:26:00,12:26:12,12:26:57,21722,21778,17650.0,33,17655.0,20,17655.0,17655.0,17655.0,17655.0,43,9,17650,44,17655,4
2016-11-14 12:27:00,12:27:00,12:27:57,21780,21824,17650.0,32,17655.0,4,17655.0,17655.0,17655.0,17655.0,26,26,17650,46,17660,23
2016-11-14 12:28:00,12:28:12,12:28:57,21834,21894,17650.0,47,17655.0,11,17655.0,17660.0,17655.0,17660.0,22,21,17655,33,17660,12
2016-11-14 12:29:00,12:29:12,12:29:57,21903,22006,17655.0,45,17660.0,15,17660.0,17665.0,17660.0,17665.0,98,-2,17660,7,17665,11
2016-11-14 12:30:00,12:30:12,12:30:57,22019,22062,17660.0,23,17665.0,11,17665.0,17665.0,17665.0,17665.0,19,19,17660,29,17665,3
2016-11-14 12:31:00,12:31:03,12:31:57,22067,22135,17660.0,31,17665.0,5,17660.0,17665.0,17660.0,17665.0,42,-30,17660,24,17665,25
2016-11-14 12:32:00,12:32:01,12:32:58,22139,22208,17660.0,26,17665.0,25,17660.0,17670.0,17660.0,17665.0,63,13,17660,14,17670,39
2016-11-14 12:33:00,12:33:00,12:33:57,22213,22253,17660.0,16,17665.0,6,17665.0,17665.0,17665.0,17665.0,21,21,17660,26,17665,23
2016-11-14 12:34:00,12:34:08,12:34:57,22265,22326,17660.0,27,17665.0,29,17660.0,17665.0,17660.0,17665.0,44,40,17660,34,17665,30
2016-11-14 12:35:00,12:35:08,12:35:47,22332,22400,17660.0,37,17665.0,32,17665.0,17670.0,17665.0,17665.0,77,17,17660,16,17665,7
2016-11-14 12:36:00,12:36:12,12:36:58,22422,22484,17660.0,26,17665.0,36,17665.0,17665.0,17660.0,17660.0,32,-6,17655,30,17665,43
2016-11-14 12:37:00,12:37:12,12:37:57,22498,22547,17655.0,28,17660.0,29,17660.0,17660.0,17655.0,17655.0,41,5,17650,35,17655,15
2016-11-14 12:38:00,12:38:12,12:38:59,22554,22641,17650.0,37,17655.0,23,17655.0,17655.0,17650.0,17655.0,122,-2,17655,9,17660,23
2016-11-14 12:39:00,12:39:08,12:39:47,22649,22778,17655.0,22,17660.0,27,17655.0,17665.0,17655.0,17660.0,111,-22,17660,9,17665,26
2016-11-14 12:40:00,12:40:02,12:40:57,22789,22866,17660.0,4,17665.0,32,17660.0,17665.0,17660.0,17665.0,52,28,17660,21,17665,35
2016-11-14 12:41:00,12:41:12,12:41:57,22874,22927,17660.0,24,17665.0,36,17665.0,17670.0,17665.0,17665.0,59,19,17660,15,17665,30
2016-11-14 12:42:00,12:42:04,12:42:57,22936,23009,17660.0,26,17665.0,29,17660.0,17670.0,17660.0,17670.0,83,33,17665,43,17670,29
2016-11-14 12:43:00,12:43:12,12:43:57,23027,23062,17665.0,47,17670.0,46,17670.0,17670.0,17670.0,17670.0,18,18,17665,47,17670,44
2016-11-14 12:44:00,12:44:09,12:44:52,23074,23151,17665.0,44,17670.0,48,17665.0,17670.0,17665.0,17665.0,75,-19,17660,27,17670,42
2016-11-14 12:45:00,12:45:12,12:45:57,23168,23195,17660.0,35,17665.0,15,17665.0,17665.0,17665.0,17665.0,18,18,17660,37,17665,7
2016-11-14 12:46:00,12:46:02,12:46:57,23199,23252,17660.0,39,17665.0,7,17665.0,17665.0,17665.0,17665.0,33,-3,17660,35,17665,24
2016-11-14 12:47:00,12:47:05,12:47:57,23258,23303,17660.0,37,17665.0,23,17660.0,17665.0,17660.0,17665.0,30,28,17660,30,17665,3
2016-11-14 12:48:00,12:48:12,12:48:57,23316,23349,17660.0,58,17665.0,6,17665.0,17670.0,17665.0,17670.0,19,19,17665,22,17670,38
2016-11-14 12:49:00,12:49:10,12:49:57,23363,23459,17665.0,35,17670.0,36,17670.0,17675.0,17670.0,17675.0,101,101,17670,48,17675,16
2016-11-14 12:50:00,12:50:12,12:50:57,23467,23572,17670.0,49,17675.0,23,17675.0,17675.0,17670.0,17675.0,100,-2,17670,10,17675,37
2016-11-14 12:51:00,12:51:12,12:51:57,23590,23662,17670.0,30,17675.0,31,17675.0,17675.0,17670.0,17670.0,51,7,17665,32,17670,7
2016-11-14 12:52:00,12:52:04,12:52:52,23669,23784,17665.0,35,17670.0,9,17665.0,17675.0,17665.0,17670.0,87,11,17670,3,17675,22
2016-11-14 12:53:00,12:53:09,12:53:57,23801,23855,17670.0,13,17675.0,26,17670.0,17675.0,17670.0,17675.0,29,-17,17670,17,17675,25
2016-11-14 12:54:00,12:54:12,12:54:59,23876,23926,17670.0,30,17675.0,28,17675.0,17675.0,17675.0,17675.0,52,52,17675,120,17680,45
2016-11-14 12:55:00,12:55:00,12:55:56,23932,24169,17675.0,132,17680.0,52,17680.0,17685.0,17675.0,17680.0,483,201,17675,31,17685,32
2016-11-14 12:56:00,12:56:07,12:56:52,24191,24307,17680.0,9,17685.0,39,17685.0,17685.0,17685.0,17685.0,220,148,17680,26,17685,7
2016-11-14 12:57:00,12:57:09,12:57:57,24318,24419,17680.0,40,17685.0,52,17685.0,17685.0,17685.0,17685.0,233,179,17680,33,17685,19
2016-11-14 12:58:00,12:58:00,12:58:57,24424,24556,17680.0,35,17685.0,21,17685.0,17695.0,17685.0,17690.0,249,-5,17685,37,17690,66
2016-11-14 12:59:00,12:59:07,12:59:59,24566,24680,17685.0,38,17690.0,68,17690.0,17690.0,17680.0,17680.0,119,36,17675,43,17685,35
2016-11-14 13:00:00,13:00:00,13:00:57,24681,24745,17675.0,36,17680.0,7,17680.0,17685.0,17680.0,17685.0,35,31,17680,40,17685,13
2016-11-14 13:01:00,13:01:01,13:01:28,24748,24768,17680.0,40,17685.0,13,17685.0,17685.0,17685.0,17685.0,11,11,17680,30,17685,13
2016-11-14 13:02:00,13:02:12,13:02:36,24784,24839,17680.0,43,17685.0,9,17685.0,17690.0,17685.0,17685.0,58,6,17680,38,17690,57
2016-11-14 13:03:00,13:03:10,13:03:55,24860,24920,17685.0,29,17690.0,50,17690.0,17690.0,17685.0,17685.0,63,-39,17680,31,17685,10
2016-11-14 13:04:00,13:04:03,13:04:46,24926,24948,17680.0,30,17685.0,30,17685.0,17685.0,17685.0,17685.0,4,4,17680,39,17685,28
2016-11-14 13:05:00,13:05:06,13:05:59,24952,25102,17680.0,39,17685.0,29,17680.0,17685.0,17665.0,17665.0,127,-95,17660,57,17670,37
2016-11-14 13:06:00,13:06:12,13:06:48,25120,25190,17660.0,65,17665.0,15,17665.0,17670.0,17665.0,17670.0,60,12,17670,17,17675,28
2016-11-14 13:07:00,13:07:06,13:07:56,25208,25295,17670.0,11,17675.0,35,17670.0,17675.0,17660.0,17675.0,71,-18,17670,29,17675,13
2016-11-14 13:08:00,13:08:02,13:08:57,25303,25342,17670.0,30,17675.0,14,17675.0,17675.0,17675.0,17675.0,19,19,17670,25,17675,21
2016-11-14 13:09:00,13:09:03,13:09:08,25351,25372,17670.0,35,17675.0,27,17675.0,17675.0,17675.0,17675.0,34,2,17670,23,17675,8
2016-11-14 13:10:00,13:10:07,13:10:27,25402,25413,17670.0,33,17675.0,37,17675.0,17675.0,17675.0,17675.0,10,10,17670,27,17675,32
2016-11-14 13:11:00,13:11:01,13:11:57,25440,25515,17670.0,44,17675.0,36,17675.0,17680.0,17670.0,17680.0,77,-15,17675,14,17680,21
2016-11-14 13:12:00,13:12:01,13:12:57,25524,25588,17675.0,27,17680.0,21,17675.0,17680.0,17675.0,17675.0,45,-27,17670,29,17680,23
2016-11-14 13:13:00,13:13:01,13:13:52,25594,25676,17675.0,8,17680.0,37,17675.0,17680.0,17675.0,17680.0,48,30,17675,52,17680,25
2016-11-14 13:14:00,13:14:03,13:14:57,25684,25760,17675.0,49,17680.0,28,17680.0,17680.0,17675.0,17675.0,77,22,17675,8,17680,50
2016-11-14 13:15:00,13:15:42,13:15:47,25791,25801,17675.0,41,17680.0,33,17680.0,17680.0,17680.0,17680.0,13,13,17675,42,17680,15
2016-11-14 13:16:00,13:16:00,13:16:51,25811,25912,17675.0,37,17680.0,50,17675.0,17680.0,17675.0,17680.0,114,-38,17680,4,17685,33
2016-11-14 13:17:00,13:17:17,13:17:55,25938,26042,17680.0,23,17685.0,45,17685.0,17685.0,17680.0,17680.0,105,31,17675,46,17680,1
2016-11-14 13:18:00,13:18:00,13:18:42,26053,26082,17675.0,56,17680.0,20,17680.0,17680.0,17680.0,17680.0,20,20,17680,17,17685,28
2016-11-14 13:19:00,13:19:05,13:19:49,26101,26369,17680.0,47,17685.0,15,17685.0,17700.0,17685.0,17695.0,419,164,17695,6,17700,127
2016-11-14 13:20:00,13:20:02,13:20:57,26390,26479,17695.0,19,17700.0,150,17695.0,17700.0,17690.0,17700.0,97,69,17695,12,17700,122
2016-11-14 13:21:00,13:21:06,13:21:48,26494,26695,17695.0,25,17700.0,125,17700.0,17705.0,17700.0,17700.0,291,125,17695,34,17700,14
2016-11-14 13:22:00,13:22:02,13:22:53,26720,26808,17695.0,47,17700.0,26,17700.0,17705.0,17700.0,17705.0,80,18,17700,26,17705,20
2016-11-14 13:23:00,13:23:12,13:23:50,26820,26923,17700.0,34,17705.0,21,17705.0,17705.0,17700.0,17700.0,115,-50,17695,51,17700,17
2016-11-14 13:24:00,13:24:21,13:24:59,26960,27037,17695.0,48,17700.0,30,17700.0,17700.0,17695.0,17695.0,73,-29,17690,34,17695,49
2016-11-14 13:25:00,13:25:00,13:25:57,27038,27173,17695.0,3,17700.0,48,17695.0,17695.0,17685.0,17690.0,124,-56,17685,45,17690,34
2016-11-14 13:26:00,13:26:02,13:26:56,27185,27324,17685.0,37,17690.0,45,17685.0,17690.0,17685.0,17690.0,129,9,17685,32,17690,12
2016-11-14 13:27:00,13:27:02,13:27:52,27336,27445,17685.0,32,17690.0,24,17690.0,17690.0,17685.0,17690.0,77,21,17685,26,17690,32
2016-11-14 13:28:00,13:28:01,13:28:57,27462,27595,17685.0,26,17690.0,33,17690.0,17690.0,17685.0,17690.0,94,16,17685,22,17690,11
2016-11-14 13:29:00,13:29:08,13:29:57,27609,27707,17685.0,22,17690.0,8,17690.0,17695.0,17690.0,17695.0,32,32,17690,25,17695,8
2016-11-14 13:30:00,13:30:03,13:30:55,27717,27822,17690.0,38,17695.0,13,17690.0,17695.0,17685.0,17685.0,71,-53,17685,10,17690,32
2016-11-14 13:31:00,13:31:05,13:31:59,27836,27943,17685.0,25,17690.0,14,17690.0,17690.0,17680.0,17685.0,52,-20,17680,36,17685,6
2016-11-14 13:32:00,13:32:02,13:32:46,27949,28016,17680.0,36,17685.0,12,17685.0,17685.0,17685.0,17685.0,37,15,17680,23,17685,22
2016-11-14 13:33:00,13:33:08,13:33:40,28039,28118,17680.0,35,17685.0,20,17685.0,17685.0,17680.0,17680.0,73,-71,17675,25,17680,19
2016-11-14 13:34:00,13:34:10,13:34:58,28139,28218,17675.0,40,17680.0,34,17680.0,17680.0,17675.0,17680.0,55,35,17675,36,17680,11
2016-11-14 13:35:00,13:35:12,13:35:57,28232,28305,17675.0,30,17680.0,31,17680.0,17685.0,17675.0,17685.0,56,38,17680,27,17685,11
2016-11-14 13:36:00,13:36:03,13:36:57,28312,28387,17680.0,34,17685.0,22,17685.0,17685.0,17680.0,17685.0,29,3,17680,34,17685,16
2016-11-14 13:37:00,13:37:02,13:37:59,28396,28458,17680.0,40,17685.0,35,17685.0,17685.0,17680.0,17680.0,65,-59,17675,26,17685,35
2016-11-14 13:38:00,13:38:01,13:38:57,28463,28516,17680.0,8,17685.0,35,17680.0,17685.0,17680.0,17685.0,25,5,17680,38,17685,25
2016-11-14 13:39:00,13:39:00,13:39:44,28522,28572,17680.0,37,17685.0,29,17685.0,17685.0,17680.0,17685.0,26,24,17680,31,17685,25
2016-11-14 13:40:00,13:40:01,13:40:53,28582,28667,17680.0,41,17685.0,33,17685.0,17685.0,17680.0,17685.0,76,-47,17680,18,17685,44
2016-11-14 13:41:00,13:41:07,13:41:57,28682,28758,17680.0,28,17685.0,47,17685.0,17685.0,17680.0,17685.0,78,76,17680,42,17685,18
2016-11-14 13:42:00,13:42:02,13:42:43,28766,28846,17680.0,53,17685.0,16,17685.0,17685.0,17675.0,17675.0,69,-49,17675,31,17680,40
2016-11-14 13:43:00,13:43:02,13:43:46,28853,28919,17675.0,34,17680.0,36,17680.0,17680.0,17675.0,17680.0,38,36,17675,45,17680,9
2016-11-14 13:44:00,13:44:01,13:44:56,28935,29023,17675.0,45,17680.0,18,17680.0,17680.0,17675.0,17675.0,49,-23,17670,21,17675,19
2016-11-14 13:45:00,13:45:00,13:45:58,29032,29137,17670.0,27,17675.0,9,17675.0,17680.0,17670.0,17680.0,56,38,17675,30,17680,57
2016-11-14 13:46:00,13:46:20,13:46:44,29156,29202,17675.0,38,17680.0,47,17680.0,17680.0,17675.0,17680.0,19,17,17675,52,17680,26
2016-11-14 13:47:00,13:47:04,13:47:59,29212,29363,17675.0,55,17680.0,25,17680.0,17685.0,17675.0,17680.0,165,37,17680,13,17685,16
2016-11-14 13:48:00,13:48:32,13:48:58,29387,29455,17680.0,32,17685.0,19,17685.0,17690.0,17680.0,17685.0,74,48,17685,21,17690,53
2016-11-14 13:49:00,13:49:11,13:49:48,29471,29555,17685.0,31,17690.0,52,17685.0,17690.0,17685.0,17690.0,68,66,17685,38,17690,10
2016-11-14 13:50:00,13:50:00,13:50:57,29563,29681,17685.0,37,17690.0,8,17690.0,17690.0,17685.0,17685.0,87,-59,17685,13,17690,59
2016-11-14 13:51:00,13:51:05,13:51:50,29694,29757,17685.0,27,17690.0,56,17690.0,17690.0,17685.0,17690.0,45,43,17685,36,17690,10
2016-11-14 13:52:00,13:52:04,13:52:55,29772,29869,17685.0,31,17690.0,30,17685.0,17690.0,17685.0,17690.0,101,95,17685,55,17690,3
2016-11-14 13:53:00,13:53:01,13:53:50,29877,29984,17685.0,55,17690.0,17,17690.0,17690.0,17680.0,17680.0,134,-108,17680,21,17685,48
2016-11-14 13:54:00,13:54:03,13:54:50,30003,30103,17680.0,42,17685.0,56,17680.0,17680.0,17675.0,17675.0,77,-43,17675,18,17680,55
2016-11-14 13:55:00,13:55:01,13:55:56,30119,30187,17675.0,39,17680.0,55,17680.0,17680.0,17675.0,17675.0,26,4,17675,57,17680,43
2016-11-14 13:56:00,13:56:01,13:56:57,30192,30381,17675.0,57,17680.0,45,17675.0,17680.0,17670.0,17675.0,171,-15,17670,34,17675,51
2016-11-14 13:57:00,13:57:02,13:57:59,30394,30541,17670.0,37,17675.0,55,17675.0,17680.0,17675.0,17675.0,168,148,17675,62,17680,163
2016-11-14 13:58:00,13:58:01,13:58:59,30546,30706,17675.0,57,17680.0,164,17680.0,17680.0,17670.0,17675.0,250,-134,17675,83,17680,84
2016-11-14 13:59:00,13:59:00,13:59:59,30709,31073,17675.0,83,17680.0,84,17675.0,17680.0,17670.0,17675.0,925,-73,17675,12,17680,262
2016-11-14 14:00:00,14:00:00,14:00:54,31076,31562,17675.0,12,17680.0,262,17675.0,17680.0,17665.0,17675.0,1333,92,17670,154,17675,153
2016-11-14 14:01:00,14:01:00,14:01:49,31576,31860,17670.0,131,17675.0,162,17670.0,17670.0,17660.0,17660.0,530,-504,17660,55,17665,133
2016-11-14 14:02:00,14:02:00,14:02:58,31870,32160,17660.0,52,17665.0,128,17660.0,17665.0,17655.0,17655.0,482,-280,17650,178,17655,21
2016-11-14 14:03:00,14:03:00,14:03:58,32168,32478,17650.0,180,17655.0,14,17650.0,17660.0,17645.0,17655.0,643,10,17655,21,17660,86
2016-11-14 14:04:00,14:04:00,14:04:53,32489,32671,17655.0,33,17660.0,145,17655.0,17660.0,17655.0,17655.0,364,-146,17655,30,17660,109
2016-11-14 14:05:00,14:05:01,14:05:50,32684,32834,17655.0,25,17660.0,114,17655.0,17655.0,17650.0,17655.0,239,-135,17650,160,17655,77
2016-11-14 14:06:00,14:06:00,14:06:56,32848,32943,17650.0,149,17655.0,91,17650.0,17660.0,17650.0,17660.0,157,71,17655,154,17660,106
2016-11-14 14:07:00,14:07:02,14:07:55,32952,33023,17655.0,154,17660.0,110,17660.0,17660.0,17655.0,17655.0,103,-91,17655,100,17660,100
2016-11-14 14:08:00,14:08:00,14:08:59,33030,33183,17655.0,111,17660.0,106,17655.0,17660.0,17655.0,17655.0,225,-7,17655,106,17660,106
