,ST,ET,sidx,eidx,bB,bBS,bA,bAS,O,H,L,C,V,OF,eB,eBS,eA,eAS
2016-07-14 08:00:00,08:00:00,08:00:56,2109,2797,16235.0,82,16245.0,9,16240.0,16240.0,16210.0,16215.0,1072,-393,16215,34,16220,6
2016-07-14 08:01:00,08:01:00,08:01:59,2809,3225,16215.0,36,16220.0,21,16220.0,16225.0,16210.0,16225.0,469,42,16215,13,16225,13
2016-07-14 08:02:00,08:02:00,08:02:47,3227,3462,16220.0,24,16225.0,13,16220.0,16225.0,16215.0,16225.0,200,44,16220,29,16225,15
2016-07-14 08:03:00,08:03:00,08:03:56,3487,3864,16220.0,32,16225.0,28,16225.0,16235.0,16210.0,16230.0,422,17,16230,11,16235,18
2016-07-14 08:04:00,08:04:00,08:04:55,3871,4144,16230.0,18,16235.0,18,16235.0,16250.0,16230.0,16245.0,262,132,16245,14,16250,31
2016-07-14 08:05:00,08:05:00,08:05:51,4157,4397,16245.0,25,16250.0,35,16250.0,16260.0,16245.0,16260.0,216,46,16255,31,16260,27
2016-07-14 08:06:00,08:06:00,08:06:55,4405,4558,16255.0,31,16260.0,29,16255.0,16260.0,16250.0,16255.0,120,-78,16255,22,16260,34
2016-07-14 08:07:00,08:07:11,08:07:50,4577,4873,16255.0,21,16260.0,38,16255.0,16280.0,16255.0,16275.0,300,18,16275,2,16280,20
2016-07-14 08:08:00,08:08:19,08:08:55,4915,5100,16275.0,19,16280.0,42,16275.0,16275.0,16270.0,16275.0,182,-18,16275,19,16280,54
2016-07-14 08:09:00,08:09:02,08:09:59,5108,5570,16275.0,36,16280.0,54,16280.0,16300.0,16275.0,16280.0,511,75,16280,1,16285,25
2016-07-14 08:10:00,08:10:02,08:10:46,5578,5702,16280.0,20,16285.0,24,16280.0,16285.0,16280.0,16285.0,72,-2,16285,7,16290,66
2016-07-14 08:11:00,08:11:02,08:11:57,5725,5905,16285.0,23,16290.0,65,16285.0,16285.0,16275.0,16285.0,218,24,16280,40,16285,3
2016-07-14 08:12:00,08:12:08,08:12:58,5914,6291,16280.0,40,16285.0,12,16280.0,16300.0,16280.0,16290.0,476,-36,16290,5,16295,23
2016-07-14 08:13:00,08:13:00,08:13:57,6298,6545,16290.0,8,16295.0,53,16290.0,16290.0,16285.0,16285.0,373,43,16285,43,16290,29
2016-07-14 08:14:00,08:14:00,08:14:56,6551,6692,16285.0,43,16290.0,30,16290.0,16295.0,16285.0,16295.0,105,-5,16295,14,16300,28
2016-07-14 08:15:00,08:15:02,08:15:59,6708,7238,16295.0,51,16300.0,24,16295.0,16300.0,16260.0,16260.0,798,-392,16260,109,16265,7
2016-07-14 08:16:00,08:16:00,08:16:56,7239,7479,16260.0,112,16265.0,4,16260.0,16270.0,16260.0,16265.0,205,53,16265,8,16270,27
2016-07-14 08:17:00,08:17:16,08:17:59,7502,7752,16265.0,30,16270.0,12,16270.0,16290.0,16270.0,16285.0,206,36,16280,49,16285,6
2016-07-14 08:18:00,08:18:04,08:18:57,7758,7927,16280.0,49,16285.0,5,16285.0,16290.0,16280.0,16285.0,150,-88,16280,30,16285,3
2016-07-14 08:19:00,08:19:00,08:19:54,7934,8180,16280.0,28,16285.0,4,16280.0,16280.0,16270.0,16275.0,239,37,16275,10,16280,18
2016-07-14 08:20:00,08:20:09,08:20:59,8195,8369,16275.0,32,16280.0,4,16280.0,16280.0,16275.0,16275.0,111,-89,16275,4,16280,26
2016-07-14 08:21:00,08:21:10,08:21:59,8383,8533,16275.0,24,16280.0,7,16280.0,16285.0,16275.0,16275.0,108,-64,16270,39,16275,8
2016-07-14 08:22:00,08:22:00,08:22:39,8535,8650,16270.0,41,16275.0,8,16270.0,16275.0,16270.0,16270.0,98,-83,16265,35,16270,12
2016-07-14 08:23:00,08:23:12,08:23:43,8706,8816,16265.0,33,16270.0,24,16265.0,16270.0,16265.0,16265.0,68,-38,16265,12,16270,20
2016-07-14 08:24:00,08:24:00,08:24:57,8845,9057,16265.0,24,16270.0,23,16265.0,16265.0,16255.0,16260.0,171,-132,16255,23,16260,23
2016-07-14 08:25:00,08:25:02,08:25:53,9070,9288,16255.0,7,16260.0,27,16255.0,16270.0,16255.0,16270.0,181,7,16270,4,16275,29
2016-07-14 08:26:00,08:26:08,08:26:58,9304,9469,16270.0,24,16275.0,24,16270.0,16275.0,16265.0,16265.0,128,-60,16265,34,16270,9
2016-07-14 08:27:00,08:27:03,08:27:37,9479,9580,16265.0,36,16270.0,19,16265.0,16275.0,16265.0,16270.0,106,-14,16265,41,16275,30
2016-07-14 08:28:00,08:28:03,08:28:59,9597,10038,16265.0,34,16270.0,19,16270.0,16270.0,16260.0,16270.0,510,134,16270,18,16275,23
2016-07-14 08:29:00,08:29:00,08:29:47,10043,10166,16270.0,32,16275.0,17,16270.0,16280.0,16265.0,16275.0,60,0,16275,4,16280,25
2016-07-14 08:30:00,08:30:01,08:30:58,10190,10380,16275.0,13,16280.0,25,16275.0,16280.0,16270.0,16270.0,157,-71,16265,32,16270,4
2016-07-14 08:31:00,08:31:02,08:31:58,10386,10532,16265.0,32,16270.0,12,16265.0,16265.0,16260.0,16260.0,91,-17,16255,42,16265,26
2016-07-14 08:32:00,08:32:00,08:32:55,10535,10663,16260.0,7,16265.0,25,16260.0,16260.0,16250.0,16255.0,109,-42,16250,25,16255,6
2016-07-14 08:33:00,08:33:03,08:33:35,10671,10792,16250.0,19,16255.0,22,16250.0,16255.0,16245.0,16255.0,84,-2,16250,19,16255,16
2016-07-14 08:34:00,08:34:07,08:34:58,10830,10969,16250.0,11,16255.0,28,16250.0,16250.0,16240.0,16245.0,83,-55,16245,14,16250,21
2016-07-14 08:35:00,08:35:02,08:35:59,10974,11108,16245.0,14,16250.0,23,16245.0,16260.0,16240.0,16260.0,66,10,16255,1,16260,26
2016-07-14 08:36:00,08:36:00,08:36:56,11109,11260,16250.0,21,16255.0,12,16255.0,16255.0,16250.0,16255.0,68,-11,16255,13,16260,30
2016-07-14 08:37:00,08:37:07,08:37:57,11285,11436,16255.0,21,16260.0,10,16260.0,16265.0,16260.0,16260.0,104,3,16260,31,16265,25
2016-07-14 08:38:00,08:38:03,08:38:56,11442,11693,16260.0,34,16265.0,36,16260.0,16265.0,16235.0,16240.0,211,-66,16235,40,16240,5
2016-07-14 08:39:00,08:39:00,08:39:58,11708,11897,16235.0,36,16240.0,5,16240.0,16245.0,16240.0,16245.0,128,44,16240,7,16245,27
2016-07-14 08:40:00,08:40:00,08:40:59,11901,12144,16240.0,7,16245.0,30,16240.0,16240.0,16230.0,16240.0,197,48,16235,21,16240,6
2016-07-14 08:41:00,08:41:02,08:41:59,12150,12228,16235.0,21,16240.0,8,16235.0,16240.0,16235.0,16240.0,25,5,16235,28,16240,12
2016-07-14 08:42:00,08:42:00,08:42:46,12229,12409,16235.0,23,16240.0,19,16240.0,16250.0,16240.0,16245.0,123,15,16240,17,16245,18
2016-07-14 08:43:00,08:43:05,08:43:57,12428,12599,16240.0,25,16245.0,19,16245.0,16245.0,16230.0,16230.0,164,-112,16230,26,16235,18
2016-07-14 08:44:00,08:44:07,08:44:53,12613,12734,16230.0,32,16235.0,12,16235.0,16245.0,16235.0,16245.0,61,41,16240,18,16245,11
2016-07-14 08:45:00,08:45:11,08:45:43,12760,12837,16240.0,15,16245.0,23,16245.0,16245.0,16240.0,16240.0,61,-19,16235,18,16240,20
2016-07-14 08:46:00,08:46:03,08:46:35,12853,12971,16235.0,19,16240.0,18,16240.0,16255.0,16240.0,16255.0,101,65,16250,20,16255,3
2016-07-14 08:47:00,08:47:09,08:47:49,13012,13084,16250.0,11,16255.0,28,16250.0,16250.0,16250.0,16250.0,37,19,16245,22,16250,5
2016-07-14 08:48:00,08:48:37,08:48:58,13112,13163,16245.0,27,16250.0,7,16250.0,16260.0,16250.0,16255.0,38,2,16250,20,16255,17
2016-07-14 08:49:00,08:49:04,08:49:47,13173,13299,16250.0,17,16255.0,21,16250.0,16255.0,16250.0,16255.0,141,11,16255,9,16260,20
2016-07-14 08:50:00,08:50:08,08:50:57,13327,13507,16255.0,11,16260.0,26,16255.0,16260.0,16245.0,16260.0,145,3,16260,23,16265,14
2016-07-14 08:51:00,08:51:02,08:51:57,13519,13848,16260.0,24,16265.0,14,16265.0,16280.0,16265.0,16275.0,305,181,16270,35,16275,2
2016-07-14 08:52:00,08:52:10,08:52:56,13870,14082,16270.0,21,16275.0,25,16270.0,16280.0,16270.0,16275.0,198,26,16275,14,16280,29
2016-07-14 08:53:00,08:53:01,08:53:58,14088,14258,16275.0,16,16280.0,32,16275.0,16280.0,16270.0,16270.0,128,-54,16270,2,16275,28
2016-07-14 08:54:00,08:54:06,08:54:59,14268,14419,16270.0,8,16275.0,34,16270.0,16270.0,16260.0,16260.0,90,-60,16255,29,16265,20
2016-07-14 08:55:00,08:55:00,08:55:57,14420,14585,16260.0,20,16265.0,17,16260.0,16265.0,16260.0,16265.0,102,-2,16260,28,16270,30
2016-07-14 08:56:00,08:56:11,08:56:33,14605,14671,16260.0,26,16265.0,10,16265.0,16265.0,16260.0,16260.0,38,-4,16255,21,16265,31
2016-07-14 08:57:00,08:57:01,08:57:58,14692,14975,16260.0,10,16265.0,29,16260.0,16260.0,16240.0,16245.0,234,-126,16245,17,16250,24
2016-07-14 08:58:00,08:58:01,08:58:59,14981,15102,16245.0,16,16250.0,18,16245.0,16260.0,16245.0,16255.0,54,16,16255,6,16260,34
2016-07-14 08:59:00,08:59:00,08:59:52,15105,15255,16255.0,9,16260.0,40,16255.0,16255.0,16245.0,16245.0,110,-52,16245,2,16250,33
2016-07-14 09:00:00,09:00:10,09:00:56,15295,15544,16245.0,17,16250.0,20,16245.0,16260.0,16245.0,16255.0,213,-77,16250,25,16260,34
2016-07-14 09:01:00,09:01:01,09:01:50,15554,15679,16255.0,3,16260.0,40,16255.0,16260.0,16255.0,16255.0,88,15,16255,3,16260,40
2016-07-14 09:02:00,09:02:06,09:02:59,15705,15862,16255.0,19,16260.0,32,16260.0,16260.0,16255.0,16260.0,120,80,16255,21,16260,1
2016-07-14 09:03:00,09:03:00,09:03:50,15863,16035,16260.0,6,16265.0,24,16260.0,16265.0,16260.0,16260.0,90,-34,16255,10,16260,4
2016-07-14 09:04:00,09:04:13,09:04:54,16059,16119,16255.0,17,16260.0,16,16255.0,16255.0,16255.0,16255.0,34,14,16250,32,16255,6
2016-07-14 09:05:00,09:05:02,09:05:28,16127,16251,16250.0,32,16255.0,13,16250.0,16250.0,16235.0,16235.0,107,-77,16235,15,16240,28
2016-07-14 09:06:00,09:06:01,09:06:51,16288,16438,16235.0,20,16240.0,30,16235.0,16245.0,16235.0,16240.0,85,-40,16240,22,16245,13
2016-07-14 09:07:00,09:07:01,09:07:51,16447,16532,16240.0,20,16245.0,14,16240.0,16245.0,16240.0,16240.0,26,-4,16240,5,16245,15
2016-07-14 09:08:00,09:08:01,09:08:59,16543,16658,16240.0,8,16245.0,17,16240.0,16245.0,16230.0,16245.0,50,-24,16240,18,16245,19
2016-07-14 09:09:00,09:09:00,09:09:51,16660,16767,16240.0,18,16245.0,22,16245.0,16245.0,16235.0,16240.0,55,-37,16240,14,16245,21
2016-07-14 09:10:00,09:10:00,09:10:54,16774,16944,16240.0,8,16245.0,23,16240.0,16240.0,16235.0,16240.0,77,-11,16235,24,16245,28
2016-07-14 09:11:00,09:11:02,09:11:59,16958,17157,16235.0,25,16240.0,5,16235.0,16255.0,16235.0,16250.0,175,83,16245,18,16250,14
2016-07-14 09:12:00,09:12:02,09:12:52,17162,17275,16245.0,19,16250.0,11,16245.0,16250.0,16245.0,16245.0,72,24,16245,32,16250,27
2016-07-14 09:13:00,09:13:01,09:13:58,17285,17398,16245.0,32,16250.0,25,16250.0,16255.0,16240.0,16240.0,90,-6,16235,24,16240,24
2016-07-14 09:14:00,09:14:02,09:14:52,17401,17577,16235.0,24,16240.0,24,16235.0,16260.0,16235.0,16255.0,168,98,16255,2,16260,19
2016-07-14 09:15:00,09:15:00,09:15:56,17586,17738,16255.0,10,16260.0,17,16255.0,16255.0,16250.0,16255.0,87,-2,16250,17,16255,5
2016-07-14 09:16:00,09:16:01,09:16:54,17744,17976,16250.0,16,16255.0,23,16255.0,16265.0,16255.0,16260.0,219,-68,16260,4,16265,26
2016-07-14 09:17:00,09:17:01,09:17:52,17992,18127,16260.0,7,16265.0,28,16260.0,16260.0,16250.0,16255.0,58,-18,16250,29,16255,14
2016-07-14 09:18:00,09:18:01,09:18:52,18139,18271,16250.0,22,16255.0,13,16255.0,16255.0,16245.0,16245.0,75,-9,16245,4,16250,37
2016-07-14 09:19:00,09:19:01,09:19:53,18278,18384,16245.0,5,16250.0,37,16245.0,16255.0,16245.0,16255.0,71,13,16255,12,16260,25
2016-07-14 09:20:00,09:20:03,09:20:53,18389,18477,16255.0,10,16260.0,25,16255.0,16255.0,16250.0,16250.0,37,-23,16250,2,16255,24
2016-07-14 09:21:00,09:21:03,09:21:53,18492,18601,16250.0,15,16255.0,20,16250.0,16255.0,16250.0,16250.0,53,-33,16250,12,16255,19
2016-07-14 09:22:00,09:22:00,09:22:56,18614,19039,16250.0,18,16255.0,12,16255.0,16290.0,16255.0,16285.0,422,145,16280,27,16285,9
2016-07-14 09:23:00,09:23:00,09:23:53,19047,19280,16280.0,21,16285.0,20,16285.0,16285.0,16275.0,16280.0,157,-9,16280,18,16285,24
2016-07-14 09:24:00,09:24:03,09:24:53,19307,19514,16280.0,16,16285.0,81,16280.0,16290.0,16280.0,16280.0,214,60,16275,28,16280,15
2016-07-14 09:25:00,09:25:03,09:25:53,19534,19685,16275.0,28,16280.0,14,16275.0,16280.0,16275.0,16275.0,136,-32,16275,21,16280,24
2016-07-14 09:26:00,09:26:04,09:26:33,19702,19753,16275.0,10,16280.0,29,16275.0,16280.0,16275.0,16275.0,36,-30,16270,50,16275,4
2016-07-14 09:27:00,09:27:00,09:27:56,19775,20265,16270.0,40,16275.0,24,16275.0,16275.0,16245.0,16250.0,701,-494,16245,39,16250,6
2016-07-14 09:28:00,09:28:26,09:28:37,20302,20356,16245.0,35,16250.0,22,16250.0,16255.0,16250.0,16255.0,48,22,16255,5,16260,18
2016-07-14 09:29:00,09:29:00,09:29:59,20378,20607,16255.0,20,16260.0,4,16260.0,16260.0,16250.0,16250.0,310,-154,16250,11,16255,26
2016-07-14 09:30:00,09:30:00,09:30:58,20612,20964,16250.0,12,16255.0,32,16250.0,16285.0,16250.0,16265.0,328,84,16260,27,16265,12
2016-07-14 09:31:00,09:31:00,09:31:59,20969,21151,16260.0,26,16265.0,15,16260.0,16270.0,16260.0,16265.0,93,46,16265,5,16270,23
2016-07-14 09:32:00,09:32:01,09:32:57,21159,21343,16260.0,28,16265.0,4,16265.0,16265.0,16255.0,16265.0,90,16,16265,12,16270,21
2016-07-14 09:33:00,09:33:00,09:33:54,21354,21621,16265.0,12,16270.0,19,16270.0,16285.0,16270.0,16280.0,190,2,16275,15,16280,5
2016-07-14 09:34:00,09:34:00,09:34:48,21631,21766,16275.0,15,16280.0,8,16280.0,16280.0,16270.0,16270.0,55,-3,16265,18,16270,9
2016-07-14 09:35:00,09:35:01,09:35:59,21792,22010,16265.0,22,16270.0,15,16270.0,16275.0,16270.0,16275.0,146,10,16270,19,16275,10
2016-07-14 09:36:00,09:36:00,09:36:50,22013,22195,16270.0,19,16275.0,10,16275.0,16275.0,16265.0,16265.0,113,-3,16260,20,16270,24
2016-07-14 09:37:00,09:37:01,09:37:56,22213,22389,16265.0,1,16270.0,23,16265.0,16265.0,16260.0,16260.0,125,-15,16260,17,16265,23
2016-07-14 09:38:00,09:38:02,09:38:59,22396,22563,16260.0,15,16265.0,23,16260.0,16270.0,16250.0,16265.0,80,-30,16265,17,16270,9
2016-07-14 09:39:00,09:39:00,09:39:51,22566,22796,16265.0,17,16270.0,9,16270.0,16275.0,16265.0,16265.0,135,9,16260,28,16265,3
2016-07-14 09:40:00,09:40:02,09:40:59,22811,22938,16260.0,26,16265.0,10,16265.0,16275.0,16265.0,16270.0,74,-32,16265,9,16270,12
2016-07-14 09:41:00,09:41:21,09:41:56,22982,23073,16265.0,10,16270.0,18,16265.0,16265.0,16265.0,16265.0,54,-28,16265,5,16270,20
2016-07-14 09:42:00,09:42:08,09:42:59,23095,23268,16265.0,15,16270.0,11,16270.0,16275.0,16270.0,16275.0,75,46,16270,20,16275,8
2016-07-14 09:43:00,09:43:03,09:43:57,23276,23411,16270.0,21,16275.0,1,16275.0,16275.0,16270.0,16270.0,73,1,16270,6,16275,22
2016-07-14 09:44:00,09:44:05,09:44:46,23418,23482,16270.0,2,16275.0,24,16270.0,16270.0,16270.0,16270.0,20,-8,16265,21,16270,6
2016-07-14 09:45:00,09:45:02,09:45:44,23496,23602,16265.0,19,16270.0,9,16265.0,16265.0,16260.0,16260.0,46,-2,16260,18,16265,6
2016-07-14 09:46:00,09:46:05,09:46:51,23632,23714,16260.0,22,16265.0,6,16265.0,16265.0,16265.0,16265.0,28,4,16260,22,16265,7
2016-07-14 09:47:00,09:47:05,09:47:58,23740,23863,16260.0,16,16265.0,11,16260.0,16265.0,16260.0,16265.0,31,5,16260,21,16265,12
2016-07-14 09:48:00,09:48:08,09:48:44,23877,23932,16260.0,19,16265.0,5,16265.0,16265.0,16265.0,16265.0,13,5,16265,5,16270,21
2016-07-14 09:49:00,09:49:00,09:49:57,23952,24072,16265.0,3,16270.0,21,16265.0,16285.0,16265.0,16285.0,71,45,16280,10,16285,15
2016-07-14 09:50:00,09:50:02,09:50:56,24082,24167,16280.0,10,16285.0,15,16280.0,16280.0,16275.0,16275.0,25,-23,16270,13,16275,15
2016-07-14 09:51:00,09:51:18,09:51:45,24190,24292,16270.0,22,16275.0,10,16275.0,16280.0,16275.0,16275.0,76,-4,16275,4,16280,25
2016-07-14 09:52:00,09:52:04,09:52:36,24323,24412,16275.0,21,16280.0,5,16280.0,16280.0,16280.0,16280.0,45,-9,16280,3,16285,20
2016-07-14 09:53:00,09:53:23,09:53:57,24462,24541,16280.0,11,16285.0,16,16280.0,16285.0,16280.0,16285.0,23,5,16285,1,16290,25
2016-07-14 09:54:00,09:54:03,09:54:58,24548,24752,16285.0,8,16290.0,21,16285.0,16295.0,16285.0,16290.0,213,67,16285,61,16290,21
2016-07-14 09:55:00,09:55:06,09:55:56,24759,24936,16285.0,60,16290.0,18,16290.0,16290.0,16280.0,16280.0,211,-62,16275,21,16285,38
2016-07-14 09:56:00,09:56:05,09:56:59,24950,25036,16275.0,22,16280.0,11,16275.0,16280.0,16275.0,16275.0,48,2,16275,2,16280,19
2016-07-14 09:57:00,09:57:00,09:57:59,25041,25142,16275.0,4,16280.0,16,16275.0,16280.0,16275.0,16280.0,52,34,16280,4,16280,1
2016-07-14 09:58:00,09:58:01,09:58:46,25146,25311,16280.0,4,16285.0,30,16280.0,16285.0,16275.0,16275.0,145,-55,16275,14,16280,15
2016-07-14 09:59:00,09:59:12,09:59:57,25338,25449,16275.0,9,16280.0,24,16275.0,16285.0,16275.0,16285.0,81,23,16280,17,16285,39
2016-07-14 10:00:00,10:00:04,10:00:59,25471,25801,16280.0,19,16285.0,38,16285.0,16300.0,16285.0,16300.0,381,7,16295,17,16300,2
2016-07-14 10:01:00,10:01:00,10:01:51,25802,25941,16300.0,12,16305.0,23,16300.0,16300.0,16295.0,16295.0,74,-26,16295,35,16300,71
2016-07-14 10:02:00,10:02:22,10:02:58,25960,26030,16295.0,37,16300.0,72,16300.0,16300.0,16295.0,16295.0,63,-24,16290,25,16295,6
2016-07-14 10:03:00,10:03:05,10:03:51,26042,26125,16290.0,13,16295.0,61,16295.0,16300.0,16295.0,16295.0,135,101,16295,12,16300,23
2016-07-14 10:04:00,10:04:09,10:04:59,26148,26551,16295.0,26,16300.0,21,16300.0,16315.0,16300.0,16315.0,386,94,16315,31,16320,33
2016-07-14 10:05:00,10:05:00,10:05:57,26554,26822,16315.0,31,16320.0,33,16315.0,16325.0,16315.0,16325.0,265,21,16325,32,16330,18
2016-07-14 10:06:00,10:06:11,10:06:57,26850,27056,16325.0,41,16330.0,20,16330.0,16330.0,16320.0,16320.0,179,45,16320,21,16325,25
2016-07-14 10:07:00,10:07:08,10:07:58,27070,27310,16320.0,18,16325.0,25,16320.0,16335.0,16320.0,16335.0,204,142,16330,36,16335,21
2016-07-14 10:08:00,10:08:00,10:08:58,27315,27571,16330.0,35,16335.0,24,16330.0,16345.0,16330.0,16335.0,385,-27,16330,21,16335,11
2016-07-14 10:09:00,10:09:02,10:09:52,27577,27739,16330.0,12,16335.0,19,16330.0,16330.0,16320.0,16320.0,105,-21,16320,12,16325,23
2016-07-14 10:10:00,10:10:00,10:10:54,27754,27918,16320.0,15,16325.0,23,16320.0,16325.0,16320.0,16320.0,74,-5,16320,1,16325,24
2016-07-14 10:11:00,10:11:05,10:11:49,27935,28099,16320.0,24,16325.0,11,16325.0,16330.0,16320.0,16320.0,119,27,16315,29,16325,19
2016-07-14 10:12:00,10:12:02,10:12:59,28117,28268,16320.0,12,16325.0,15,16325.0,16330.0,16325.0,16330.0,99,16,16325,26,16330,2
2016-07-14 10:13:00,10:13:03,10:13:54,28274,28380,16325.0,27,16330.0,1,16330.0,16335.0,16330.0,16330.0,37,-29,16325,50,16330,7
2016-07-14 10:14:00,10:14:13,10:14:59,28403,28444,16325.0,51,16330.0,12,16330.0,16330.0,16325.0,16325.0,8,-4,16325,39,16330,26
2016-07-14 10:15:00,10:15:21,10:15:33,28458,28528,16325.0,50,16330.0,16,16325.0,16330.0,16320.0,16330.0,80,-12,16325,27,16330,6
2016-07-14 10:16:00,10:16:09,10:16:53,28548,28610,16325.0,36,16330.0,13,16330.0,16330.0,16325.0,16325.0,35,-7,16325,3,16330,24
2016-07-14 10:17:00,10:17:31,10:17:55,28646,28735,16325.0,14,16330.0,23,16330.0,16330.0,16325.0,16330.0,111,-45,16325,24,16330,3
2016-07-14 10:18:00,10:18:06,10:18:23,28755,28789,16325.0,16,16330.0,9,16330.0,16330.0,16325.0,16325.0,12,7,16325,14,16330,12
2016-07-14 10:19:00,10:19:35,10:19:40,28850,28905,16325.0,16,16330.0,16,16325.0,16330.0,16320.0,16325.0,52,-50,16325,12,16330,19
2016-07-14 10:20:00,10:20:09,10:20:56,28931,29273,16325.0,21,16330.0,15,16325.0,16360.0,16325.0,16355.0,396,262,16350,55,16355,5
2016-07-14 10:21:00,10:21:00,10:21:44,29279,29469,16350.0,58,16355.0,2,16355.0,16355.0,16345.0,16345.0,210,-88,16340,26,16345,18
2016-07-14 10:22:00,10:22:10,10:22:43,29494,29604,16340.0,24,16345.0,20,16345.0,16345.0,16340.0,16345.0,101,-16,16340,22,16345,8
2016-07-14 10:23:00,10:23:13,10:23:45,29628,29758,16340.0,14,16345.0,24,16340.0,16340.0,16330.0,16335.0,109,-6,16330,30,16335,3
2016-07-14 10:24:00,10:24:01,10:24:58,29778,29916,16330.0,35,16335.0,11,16335.0,16340.0,16325.0,16330.0,81,-10,16325,47,16330,3
2016-07-14 10:25:00,10:25:05,10:25:56,29926,30096,16325.0,47,16330.0,7,16325.0,16325.0,16320.0,16320.0,140,4,16315,34,16320,4
2016-07-14 10:26:00,10:26:11,10:26:55,30124,30218,16315.0,38,16320.0,18,16320.0,16320.0,16320.0,16320.0,59,19,16320,16,16320,2
2016-07-14 10:27:00,10:27:01,10:27:54,30223,30312,16315.0,36,16320.0,3,16320.0,16330.0,16320.0,16325.0,42,4,16325,17,16330,26
2016-07-14 10:28:00,10:28:02,10:28:59,30320,30588,16325.0,21,16330.0,24,16330.0,16340.0,16330.0,16330.0,259,96,16330,7,16335,18
2016-07-14 10:29:00,10:29:00,10:29:59,30589,30710,16330.0,24,16335.0,16,16330.0,16340.0,16330.0,16340.0,114,78,16335,27,16340,23
2016-07-14 10:30:00,10:30:05,10:30:51,30729,30937,16335.0,31,16340.0,19,16335.0,16335.0,16325.0,16325.0,187,-114,16325,7,16330,16
2016-07-14 10:31:00,10:31:13,10:31:34,30971,31055,16325.0,15,16330.0,13,16330.0,16335.0,16325.0,16325.0,75,36,16325,2,16330,21
2016-07-14 10:32:00,10:32:13,10:32:58,31092,31199,16325.0,23,16330.0,11,16330.0,16335.0,16330.0,16330.0,52,17,16330,3,16335,21
2016-07-14 10:33:00,10:33:24,10:33:28,31223,31240,16330.0,11,16335.0,14,16330.0,16330.0,16325.0,16325.0,10,-10,16325,18,16330,7
2016-07-14 10:34:00,10:34:31,10:34:54,31275,31312,16325.0,26,16330.0,15,16330.0,16335.0,16330.0,16335.0,22,19,16330,15,16335,1
2016-07-14 10:35:00,10:35:34,10:35:45,31348,31358,16330.0,27,16335.0,4,16335.0,16335.0,16335.0,16335.0,21,21,16335,12,16340,15
2016-07-14 10:36:00,10:36:13,10:36:46,31393,31470,16335.0,35,16340.0,7,16340.0,16340.0,16335.0,16335.0,38,10,16330,12,16335,5
2016-07-14 10:37:00,10:37:01,10:37:03,31483,31489,16330.0,15,16335.0,2,16335.0,16335.0,16335.0,16335.0,4,0,16330,16,16340,18
2016-07-14 10:38:00,10:38:19,10:38:31,31534,31569,16335.0,21,16340.0,17,16335.0,16335.0,16335.0,16335.0,21,-15,16335,4,16340,19
2016-07-14 10:39:00,10:39:06,10:39:06,31597,31597,16335.0,14,16340.0,20,16335.0,16335.0,16335.0,16335.0,1,-1,16335,9,16340,18
2016-07-14 10:40:00,10:40:01,10:40:33,31639,31702,16335.0,23,16340.0,12,16340.0,16340.0,16335.0,16335.0,49,23,16330,20,16335,1
2016-07-14 10:41:00,10:41:13,10:41:50,31735,31894,16335.0,20,16340.0,7,16340.0,16345.0,16335.0,16340.0,102,4,16340,6,16345,15
2016-07-14 10:42:00,10:42:12,10:42:55,31919,31980,16340.0,10,16345.0,15,16345.0,16345.0,16345.0,16345.0,26,6,16345,3,16350,20
2016-07-14 10:43:00,10:43:00,10:43:42,31985,32043,16345.0,4,16350.0,22,16345.0,16345.0,16345.0,16345.0,44,16,16340,16,16350,31
2016-07-14 10:44:00,10:44:09,10:44:59,32055,32152,16345.0,14,16350.0,31,16345.0,16350.0,16340.0,16350.0,60,-4,16345,4,16350,32
2016-07-14 10:45:00,10:45:21,10:45:44,32173,32210,16345.0,13,16350.0,33,16345.0,16350.0,16345.0,16345.0,17,-5,16345,7,16350,34
2016-07-14 10:46:00,10:46:08,10:46:55,32226,32260,16345.0,8,16350.0,36,16345.0,16350.0,16345.0,16350.0,10,-8,16345,17,16350,31
2016-07-14 10:47:00,10:47:57,10:47:57,32301,32315,16345.0,18,16350.0,34,16345.0,16345.0,16345.0,16345.0,19,-19,16345,12,16350,35
2016-07-14 10:48:00,10:48:00,10:48:55,32319,32343,16345.0,11,16350.0,35,16345.0,16350.0,16345.0,16345.0,10,-4,16345,33,16350,35
2016-07-14 10:49:00,10:49:22,10:49:32,32358,32435,16345.0,38,16350.0,33,16350.0,16350.0,16345.0,16350.0,97,23,16345,15,16350,13
2016-07-14 10:50:00,10:50:10,10:50:57,32464,32549,16345.0,21,16350.0,38,16345.0,16345.0,16335.0,16335.0,75,-71,16335,59,16340,22
2016-07-14 10:51:00,10:51:03,10:51:47,32556,32640,16335.0,71,16340.0,18,16340.0,16350.0,16340.0,16340.0,53,15,16340,24,16345,10
2016-07-14 10:52:00,10:52:17,10:52:55,32657,32701,16340.0,27,16345.0,14,16345.0,16350.0,16345.0,16345.0,22,18,16345,6,16350,26
2016-07-14 10:53:00,10:53:00,10:53:00,0,0,0.0,0,0.0,0,16345.0,16345.0,16345.0,16345.0,0,0,0,0,0,0
2016-07-14 10:54:00,10:54:05,10:54:59,32735,32896,16345.0,23,16350.0,24,16345.0,16370.0,16345.0,16360.0,109,59,16360,10,16360,13
2016-07-14 10:55:00,10:55:00,10:55:56,32898,33034,16360.0,10,16365.0,23,16360.0,16370.0,16355.0,16365.0,116,76,16365,8,16370,19
2016-07-14 10:56:00,10:56:00,10:56:58,33037,33271,16365.0,8,16370.0,19,16370.0,16380.0,16370.0,16370.0,255,77,16370,9,16375,17
2016-07-14 10:57:00,10:57:11,10:57:35,33299,33346,16370.0,15,16375.0,13,16370.0,16370.0,16365.0,16365.0,23,-23,16365,3,16370,23
2016-07-14 10:58:00,10:58:09,10:58:38,33373,33400,16365.0,21,16370.0,14,16365.0,16370.0,16365.0,16370.0,22,14,16365,23,16370,8
2016-07-14 10:59:00,10:59:29,10:59:54,33444,33510,16365.0,14,16370.0,32,16365.0,16365.0,16360.0,16360.0,32,-24,16360,18,16365,16
2016-07-14 11:00:00,11:00:20,11:00:57,33520,33590,16360.0,22,16365.0,12,16365.0,16375.0,16365.0,16375.0,45,25,16370,3,16375,20
2016-07-14 11:01:00,11:01:02,11:01:59,33597,33693,16370.0,7,16375.0,20,16370.0,16370.0,16370.0,16370.0,48,34,16370,2,16375,21
2016-07-14 11:02:00,11:02:00,11:02:00,0,0,0.0,0,0.0,0,16370.0,16370.0,16370.0,16370.0,0,0,0,0,0,0
2016-07-14 11:03:00,11:03:22,11:03:58,33749,33828,16370.0,11,16375.0,11,16375.0,16375.0,16375.0,16375.0,40,40,16370,14,16375,8
2016-07-14 11:04:00,11:04:12,11:04:58,33838,33883,16370.0,11,16375.0,13,16370.0,16375.0,16370.0,16375.0,17,-1,16375,3,16375,4
2016-07-14 11:05:00,11:05:00,11:05:45,33885,34006,16370.0,17,16375.0,4,16375.0,16390.0,16375.0,16380.0,86,6,16380,6,16385,23
2016-07-14 11:06:00,11:06:21,11:06:53,34043,34101,16380.0,20,16385.0,21,16385.0,16390.0,16385.0,16390.0,25,25,16385,27,16390,19
2016-07-14 11:07:00,11:07:07,11:07:49,34110,34196,16385.0,26,16390.0,18,16385.0,16385.0,16385.0,16385.0,82,-70,16380,19,16385,13
2016-07-14 11:08:00,11:08:10,11:08:59,34219,34344,16380.0,18,16385.0,8,16385.0,16390.0,16380.0,16385.0,88,9,16380,24,16390,19
2016-07-14 11:09:00,11:09:06,11:09:56,34358,34460,16385.0,12,16390.0,17,16385.0,16385.0,16385.0,16385.0,46,-22,16385,5,16390,16
2016-07-14 11:10:00,11:10:03,11:10:42,34469,34543,16385.0,13,16390.0,12,16385.0,16385.0,16380.0,16385.0,41,-17,16385,2,16390,32
2016-07-14 11:11:00,11:11:37,11:11:58,34586,34629,16385.0,15,16390.0,26,16385.0,16385.0,16385.0,16385.0,19,-19,16380,23,16385,4
2016-07-14 11:12:00,11:12:13,11:12:56,34652,34724,16380.0,14,16385.0,15,16385.0,16385.0,16385.0,16385.0,52,18,16380,20,16385,3
2016-07-14 11:13:00,11:13:05,11:13:57,34729,34825,16380.0,20,16385.0,1,16385.0,16385.0,16385.0,16385.0,39,-8,16385,14,16390,21
2016-07-14 11:14:00,11:14:04,11:14:50,34832,34905,16385.0,15,16390.0,25,16385.0,16390.0,16385.0,16385.0,49,-1,16385,1,16390,20
2016-07-14 11:15:00,11:15:10,11:15:43,34922,34970,16385.0,9,16390.0,22,16385.0,16385.0,16385.0,16385.0,19,-3,16380,20,16385,6
2016-07-14 11:16:00,11:16:01,11:16:59,34990,35130,16380.0,8,16385.0,17,16380.0,16380.0,16360.0,16360.0,78,-60,16360,18,16365,10
2016-07-14 11:17:00,11:17:00,11:17:50,35135,35258,16360.0,23,16370.0,20,16365.0,16370.0,16365.0,16370.0,98,42,16370,11,16370,7
2016-07-14 11:18:00,11:18:00,11:18:57,35263,35375,16370.0,14,16375.0,16,16370.0,16370.0,16365.0,16370.0,99,-9,16365,10,16370,13
2016-07-14 11:19:00,11:19:00,11:19:58,35381,35474,16365.0,3,16370.0,18,16365.0,16365.0,16360.0,16360.0,45,-13,16360,13,16365,13
2016-07-14 11:20:00,11:20:19,11:20:51,35483,35528,16360.0,18,16365.0,4,16365.0,16365.0,16365.0,16365.0,15,15,16360,28,16365,5
2016-07-14 11:21:00,11:21:04,11:21:56,35541,35607,16360.0,26,16365.0,5,16360.0,16365.0,16360.0,16365.0,26,-2,16360,17,16370,19
2016-07-14 11:22:00,11:22:13,11:22:37,35616,35630,16360.0,13,16365.0,11,16360.0,16365.0,16360.0,16365.0,5,3,16360,18,16370,21
2016-07-14 11:23:00,11:23:01,11:23:58,35662,35736,16365.0,15,16370.0,6,16370.0,16370.0,16365.0,16365.0,37,5,16360,22,16370,20
2016-07-14 11:24:00,11:24:12,11:24:59,35744,35827,16365.0,4,16370.0,20,16365.0,16365.0,16360.0,16365.0,49,-28,16365,1,16370,22
2016-07-14 11:25:00,11:25:15,11:25:57,35833,35892,16365.0,5,16370.0,22,16365.0,16365.0,16360.0,16360.0,40,-25,16360,8,16365,12
2016-07-14 11:26:00,11:26:02,11:26:36,35900,35930,16360.0,20,16365.0,8,16365.0,16370.0,16365.0,16370.0,16,6,16365,44,16370,13
2016-07-14 11:27:00,11:27:12,11:27:56,35947,36028,16365.0,55,16370.0,18,16370.0,16370.0,16365.0,16370.0,87,73,16370,15,16375,14
2016-07-14 11:28:00,11:28:05,11:28:57,36039,36126,16370.0,8,16375.0,21,16370.0,16375.0,16370.0,16370.0,82,-34,16365,23,16375,28
2016-07-14 11:29:00,11:29:01,11:29:53,36137,36259,16365.0,18,16370.0,3,16370.0,16375.0,16360.0,16360.0,88,-16,16360,6,16365,29
2016-07-14 11:30:00,11:30:00,11:30:57,36272,36559,16360.0,9,16365.0,31,16360.0,16365.0,16350.0,16350.0,249,-111,16345,19,16350,9
2016-07-14 11:31:00,11:31:04,11:31:49,36579,36743,16345.0,18,16350.0,16,16350.0,16350.0,16345.0,16345.0,119,44,16345,11,16350,20
2016-07-14 11:32:00,11:32:07,11:32:47,36768,36899,16345.0,4,16350.0,21,16345.0,16355.0,16340.0,16355.0,150,106,16350,21,16355,4
2016-07-14 11:33:00,11:33:22,11:33:53,36919,37016,16350.0,21,16355.0,19,16355.0,16355.0,16350.0,16350.0,93,-24,16345,32,16350,7
2016-07-14 11:34:00,11:34:09,11:34:45,37026,37107,16345.0,27,16350.0,13,16345.0,16345.0,16345.0,16345.0,63,-53,16345,1,16350,18
2016-07-14 11:35:00,11:35:03,11:35:59,37132,37264,16345.0,11,16350.0,20,16350.0,16355.0,16350.0,16355.0,121,102,16350,26,16360,31
2016-07-14 11:36:00,11:36:00,11:36:53,37269,37512,16350.0,26,16355.0,3,16355.0,16360.0,16355.0,16355.0,255,77,16350,22,16355,7
2016-07-14 11:37:00,11:37:01,11:37:57,37520,37595,16350.0,21,16355.0,8,16355.0,16360.0,16350.0,16360.0,63,51,16350,28,16360,34
2016-07-14 11:38:00,11:38:01,11:38:51,37599,37769,16350.0,28,16360.0,35,16360.0,16365.0,16355.0,16365.0,168,63,16360,29,16365,17
2016-07-14 11:39:00,11:39:01,11:39:56,37775,37875,16360.0,28,16365.0,19,16365.0,16365.0,16365.0,16365.0,67,48,16360,24,16365,13
2016-07-14 11:40:00,11:40:01,11:40:56,37882,38059,16360.0,23,16365.0,14,16365.0,16365.0,16350.0,16355.0,137,67,16355,8,16360,29
2016-07-14 11:41:00,11:41:01,11:41:57,38068,38174,16350.0,34,16355.0,2,16355.0,16360.0,16355.0,16355.0,77,-7,16355,10,16360,34
2016-07-14 11:42:00,11:42:01,11:42:58,38178,38349,16355.0,11,16360.0,34,16355.0,16360.0,16355.0,16360.0,215,100,16360,10,16360,3
2016-07-14 11:43:00,11:43:02,11:43:55,38351,38576,16355.0,44,16360.0,3,16360.0,16370.0,16360.0,16365.0,203,-62,16360,58,16370,39
2016-07-14 11:44:00,11:44:02,11:44:59,38586,38853,16360.0,32,16365.0,15,16365.0,16375.0,16365.0,16365.0,306,52,16365,9,16365,2
2016-07-14 11:45:00,11:45:00,11:45:53,38855,38956,16365.0,9,16370.0,45,16365.0,16370.0,16365.0,16370.0,93,75,16365,30,16370,8
2016-07-14 11:46:00,11:46:00,11:46:53,38965,39110,16365.0,32,16370.0,7,16370.0,16375.0,16365.0,16365.0,134,-46,16360,33,16365,9
2016-07-14 11:47:00,11:47:02,11:47:59,39125,39398,16360.0,23,16365.0,20,16365.0,16365.0,16335.0,16345.0,231,-92,16345,16,16350,28
2016-07-14 11:48:00,11:48:02,11:48:52,39404,39536,16345.0,36,16350.0,22,16350.0,16350.0,16345.0,16350.0,134,38,16345,26,16350,20
2016-07-14 11:49:00,11:49:02,11:49:59,39543,39643,16345.0,30,16350.0,16,16350.0,16350.0,16345.0,16345.0,58,-8,16340,19,16345,16
2016-07-14 11:50:00,11:50:02,11:50:53,39650,39760,16340.0,26,16345.0,11,16345.0,16350.0,16345.0,16350.0,51,42,16345,11,16350,34
2016-07-14 11:51:00,11:51:03,11:51:55,39764,39911,16345.0,11,16350.0,36,16350.0,16360.0,16350.0,16355.0,110,73,16350,39,16355,5
2016-07-14 11:52:00,11:52:03,11:52:57,39923,40096,16350.0,34,16355.0,9,16355.0,16355.0,16340.0,16340.0,99,-39,16340,14,16345,38
2016-07-14 11:53:00,11:53:03,11:53:53,40105,40226,16340.0,10,16345.0,41,16345.0,16350.0,16335.0,16345.0,67,3,16340,25,16345,13
2016-07-14 11:54:00,11:54:01,11:54:57,40233,40421,16340.0,25,16345.0,8,16345.0,16360.0,16345.0,16350.0,198,-54,16350,14,16355,37
2016-07-14 11:55:00,11:55:00,11:55:53,40425,40507,16350.0,15,16355.0,37,16350.0,16355.0,16345.0,16345.0,31,3,16345,9,16345,6
2016-07-14 11:56:00,11:56:00,11:56:49,40510,40646,16340.0,30,16345.0,2,16345.0,16350.0,16340.0,16340.0,110,-59,16335,30,16340,1
2016-07-14 11:57:00,11:57:10,11:57:39,40675,40751,16340.0,28,16345.0,6,16345.0,16345.0,16335.0,16335.0,50,6,16335,15,16340,20
2016-07-14 11:58:00,11:58:12,11:58:48,40793,40886,16335.0,23,16340.0,29,16335.0,16340.0,16335.0,16340.0,42,12,16340,34,16345,16
2016-07-14 11:59:00,11:59:02,11:59:59,40896,40993,16340.0,37,16345.0,17,16340.0,16345.0,16340.0,16340.0,54,-42,16335,29,16340,1
2016-07-14 12:00:00,12:00:00,12:00:25,40997,41073,16335.0,29,16340.0,2,16340.0,16350.0,16340.0,16350.0,77,57,16350,15,16355,32
2016-07-14 12:01:00,12:01:00,12:01:28,41107,41164,16350.0,23,16355.0,23,16350.0,16350.0,16345.0,16345.0,28,-14,16340,25,16345,10
2016-07-14 12:02:00,12:02:26,12:02:47,41193,41279,16340.0,30,16345.0,15,16345.0,16350.0,16345.0,16345.0,81,57,16340,27,16345,2
2016-07-14 12:03:00,12:03:20,12:03:53,41296,41391,16340.0,20,16345.0,44,16340.0,16340.0,16330.0,16335.0,83,-9,16335,23,16340,14
2016-07-14 12:04:00,12:04:00,12:04:37,41402,41422,16335.0,16,16340.0,36,16335.0,16335.0,16335.0,16335.0,15,-5,16330,55,16335,7
2016-07-14 12:05:00,12:05:00,12:05:38,41435,41512,16330.0,57,16335.0,6,16335.0,16335.0,16335.0,16335.0,46,10,16335,6,16340,33
2016-07-14 12:06:00,12:06:10,12:06:52,41544,41648,16335.0,22,16340.0,33,16335.0,16335.0,16335.0,16335.0,58,-25,16335,5,16340,32
2016-07-14 12:07:00,12:07:13,12:07:59,41676,41765,16335.0,32,16340.0,12,16340.0,16340.0,16335.0,16335.0,52,2,16330,46,16340,35
2016-07-14 12:08:00,12:08:00,12:08:55,41767,41876,16330.0,50,16340.0,35,16335.0,16335.0,16325.0,16325.0,68,-54,16325,8,16330,36
2016-07-14 12:09:00,12:09:01,12:09:54,41886,41959,16325.0,10,16330.0,35,16325.0,16325.0,16325.0,16325.0,34,14,16325,15,16325,3
2016-07-14 12:10:00,12:10:08,12:10:28,41970,42036,16320.0,48,16325.0,10,16325.0,16330.0,16325.0,16330.0,52,44,16330,18,16335,22
2016-07-14 12:11:00,12:11:35,12:11:37,42101,42109,16330.0,26,16335.0,33,16335.0,16335.0,16330.0,16330.0,2,0,16330,14,16335,45
2016-07-14 12:12:00,12:12:28,12:12:57,42147,42215,16330.0,30,16335.0,23,16335.0,16340.0,16335.0,16335.0,50,14,16330,13,16335,30
2016-07-14 12:13:00,12:13:19,12:13:49,42235,42306,16330.0,26,16335.0,21,16335.0,16335.0,16335.0,16335.0,42,34,16330,32,16335,11
2016-07-14 12:14:00,12:14:00,12:14:18,42320,42363,16330.0,29,16335.0,11,16335.0,16335.0,16335.0,16335.0,32,28,16330,33,16335,6
2016-07-14 12:15:00,12:15:00,12:15:00,0,0,0.0,0,0.0,0,16335.0,16335.0,16335.0,16335.0,0,0,0,0,0,0
2016-07-14 12:16:00,12:16:15,12:16:52,42451,42554,16330.0,15,16335.0,37,16330.0,16335.0,16325.0,16335.0,72,-32,16330,25,16335,14
2016-07-14 12:17:00,12:17:00,12:17:00,0,0,0.0,0,0.0,0,16335.0,16335.0,16335.0,16335.0,0,0,0,0,0,0
2016-07-14 12:18:00,12:18:00,12:18:31,42599,42645,16330.0,15,16335.0,31,16330.0,16335.0,16330.0,16335.0,12,-2,16330,29,16335,7
2016-07-14 12:19:00,12:19:33,12:19:51,42699,42738,16330.0,27,16335.0,28,16335.0,16340.0,16335.0,16340.0,33,33,16340,4,16345,31
2016-07-14 12:20:00,12:20:38,12:20:54,42807,42844,16340.0,31,16345.0,16,16345.0,16350.0,16345.0,16350.0,27,23,16345,25,16350,18
2016-07-14 12:21:00,12:21:18,12:21:52,42859,42949,16345.0,26,16350.0,26,16350.0,16350.0,16345.0,16345.0,56,36,16340,20,16345,22
2016-07-14 12:22:00,12:22:29,12:22:58,42977,43064,16340.0,10,16345.0,36,16340.0,16340.0,16330.0,16335.0,76,2,16335,7,16340,29
2016-07-14 12:23:00,12:23:05,12:23:47,43075,43150,16335.0,32,16340.0,14,16340.0,16340.0,16335.0,16340.0,55,37,16335,25,16340,8
2016-07-14 12:24:00,12:24:16,12:24:56,43171,43236,16335.0,24,16340.0,12,16340.0,16340.0,16340.0,16340.0,44,7,16335,24,16340,8
2016-07-14 12:25:00,12:25:07,12:25:46,43245,43329,16335.0,24,16340.0,2,16340.0,16345.0,16340.0,16345.0,33,-9,16340,31,16350,27
2016-07-14 12:26:00,12:26:00,12:26:00,43353,43356,16345.0,13,16350.0,29,16345.0,16345.0,16345.0,16345.0,5,-5,16340,27,16345,4
2016-07-14 12:27:00,12:27:12,12:27:56,43449,43562,16345.0,26,16350.0,18,16350.0,16355.0,16345.0,16350.0,61,-9,16345,39,16355,29
2016-07-14 12:28:00,12:28:36,12:28:51,43620,43676,16350.0,20,16355.0,17,16355.0,16355.0,16350.0,16350.0,27,9,16345,21,16350,29
2016-07-14 12:29:00,12:29:01,12:29:42,43692,43764,16345.0,27,16350.0,33,16350.0,16350.0,16340.0,16340.0,36,-14,16340,19,16345,40
2016-07-14 12:30:00,12:30:00,12:30:32,43771,43848,16340.0,20,16345.0,32,16340.0,16340.0,16340.0,16340.0,52,0,16340,7,16345,29
2016-07-14 12:31:00,12:31:11,12:31:56,43889,43956,16340.0,20,16345.0,37,16345.0,16345.0,16340.0,16340.0,38,4,16340,1,16345,64
2016-07-14 12:32:00,12:32:00,12:32:41,43960,44018,16340.0,1,16345.0,60,16340.0,16340.0,16340.0,16340.0,31,-25,16335,35,16340,2
2016-07-14 12:33:00,12:33:05,12:33:36,44038,44126,16335.0,17,16340.0,44,16340.0,16345.0,16340.0,16345.0,147,117,16340,32,16345,6
2016-07-14 12:34:00,12:34:12,12:34:55,44159,44189,16340.0,14,16345.0,36,16340.0,16340.0,16335.0,16335.0,18,-18,16335,4,16340,32
2016-07-14 12:35:00,12:35:00,12:35:00,0,0,0.0,0,0.0,0,16335.0,16335.0,16335.0,16335.0,0,0,0,0,0,0
2016-07-14 12:36:00,12:36:00,12:36:58,44251,44400,16330.0,20,16335.0,29,16335.0,16335.0,16330.0,16330.0,111,9,16325,40,16330,20
2016-07-14 12:37:00,12:37:00,12:37:50,44405,44504,16325.0,35,16330.0,21,16330.0,16330.0,16330.0,16330.0,59,30,16325,34,16330,4
2016-07-14 12:38:00,12:38:00,12:38:50,44510,44602,16325.0,34,16330.0,14,16330.0,16335.0,16325.0,16335.0,51,25,16330,17,16335,36
2016-07-14 12:39:00,12:39:00,12:39:51,44614,44716,16330.0,17,16335.0,34,16335.0,16335.0,16325.0,16325.0,45,-3,16320,71,16325,14
2016-07-14 12:40:00,12:40:01,12:40:56,44720,44841,16320.0,71,16325.0,13,16325.0,16330.0,16325.0,16325.0,66,29,16320,72,16325,6
2016-07-14 12:41:00,12:41:01,12:41:51,44847,44933,16320.0,72,16325.0,6,16325.0,16325.0,16320.0,16325.0,42,28,16320,66,16330,33
2016-07-14 12:42:00,12:42:01,12:42:51,44947,44992,16320.0,67,16325.0,3,16325.0,16325.0,16325.0,16325.0,15,15,16320,68,16325,12
2016-07-14 12:43:00,12:43:01,12:43:51,45000,45071,16320.0,70,16325.0,7,16325.0,16330.0,16325.0,16330.0,42,27,16325,19,16330,26
2016-07-14 12:44:00,12:44:01,12:44:59,45085,45233,16325.0,14,16330.0,30,16330.0,16335.0,16330.0,16335.0,125,99,16330,30,16335,12
2016-07-14 12:45:00,12:45:01,12:45:51,45240,45343,16330.0,29,16335.0,19,16335.0,16340.0,16335.0,16340.0,88,2,16335,34,16340,30
2016-07-14 12:46:00,12:46:01,12:46:56,45350,45410,16335.0,25,16340.0,39,16340.0,16340.0,16335.0,16335.0,44,26,16330,46,16335,11
2016-07-14 12:47:00,12:47:02,12:47:52,45422,45476,16330.0,35,16335.0,27,16335.0,16335.0,16335.0,16335.0,16,16,16330,39,16335,23
2016-07-14 12:48:00,12:48:02,12:48:52,45482,45549,16330.0,39,16335.0,26,16335.0,16340.0,16335.0,16335.0,40,6,16330,37,16335,5
2016-07-14 12:49:00,12:49:02,12:49:52,45554,45622,16330.0,39,16335.0,4,16335.0,16335.0,16335.0,16335.0,14,14,16330,28,16335,32
2016-07-14 12:50:00,12:50:02,12:50:52,45633,45731,16330.0,25,16335.0,40,16335.0,16335.0,16325.0,16325.0,72,-8,16320,52,16325,14
2016-07-14 12:51:00,12:51:02,12:51:52,45740,45849,16320.0,53,16325.0,22,16325.0,16330.0,16325.0,16330.0,85,78,16325,20,16330,5
2016-07-14 12:52:00,12:52:02,12:52:52,45859,45992,16325.0,29,16330.0,19,16330.0,16330.0,16320.0,16320.0,146,-118,16315,118,16320,18
2016-07-14 12:53:00,12:53:02,12:53:59,46002,46098,16315.0,124,16320.0,12,16320.0,16325.0,16320.0,16320.0,66,36,16315,135,16320,2
2016-07-14 12:54:00,12:54:00,12:54:53,46101,46230,16315.0,135,16320.0,2,16320.0,16325.0,16315.0,16325.0,99,-55,16320,21,16325,35
2016-07-14 12:55:00,12:55:03,12:55:59,46243,46321,16320.0,15,16325.0,32,16325.0,16325.0,16320.0,16320.0,31,-7,16315,103,16320,22
2016-07-14 12:56:00,12:56:00,12:56:40,46322,46407,16320.0,24,16325.0,31,16320.0,16320.0,16320.0,16320.0,73,-13,16320,2,16325,47
2016-07-14 12:57:00,12:57:49,12:57:51,46448,46474,16320.0,27,16325.0,28,16320.0,16320.0,16320.0,16320.0,49,-38,16320,6,16325,43
2016-07-14 12:58:00,12:58:20,12:58:52,46500,46604,16320.0,12,16325.0,45,16320.0,16325.0,16320.0,16325.0,100,-30,16325,4,16330,34
2016-07-14 12:59:00,12:59:08,12:59:41,46622,46722,16325.0,20,16330.0,20,16330.0,16335.0,16320.0,16320.0,94,-14,16320,8,16325,34
2016-07-14 13:00:00,13:00:00,13:00:52,46733,46849,16320.0,15,16325.0,30,16320.0,16320.0,16315.0,16320.0,86,8,16320,19,16325,28
2016-07-14 13:01:00,13:01:00,13:01:00,0,0,0.0,0,0.0,0,16320.0,16320.0,16320.0,16320.0,0,0,0,0,0,0
2016-07-14 13:02:00,13:02:08,13:02:48,46916,46997,16320.0,21,16325.0,35,16320.0,16320.0,16315.0,16320.0,53,1,16315,126,16325,51
2016-07-14 13:03:00,13:03:21,13:03:36,47018,47045,16315.0,113,16320.0,4,16320.0,16320.0,16320.0,16320.0,11,-5,16320,12,16325,41
2016-07-14 13:04:00,13:04:57,13:04:57,47123,47129,16320.0,75,16325.0,18,16325.0,16325.0,16325.0,16325.0,12,12,16325,17,16330,28
2016-07-14 13:05:00,13:05:01,13:05:32,47141,47248,16325.0,29,16330.0,22,16330.0,16330.0,16325.0,16325.0,116,30,16320,89,16325,21
2016-07-14 13:06:00,13:06:19,13:06:22,47299,47330,16320.0,77,16325.0,22,16325.0,16325.0,16325.0,16325.0,56,-14,16320,87,16325,20
2016-07-14 13:07:00,13:07:01,13:07:48,47378,47525,16320.0,77,16325.0,26,16325.0,16330.0,16325.0,16330.0,178,156,16325,22,16330,37
2016-07-14 13:08:00,13:08:00,13:08:00,0,0,0.0,0,0.0,0,16330.0,16330.0,16330.0,16330.0,0,0,0,0,0,0
2016-07-14 13:09:00,13:09:10,13:09:59,47583,47684,16325.0,39,16330.0,20,16330.0,16335.0,16330.0,16335.0,87,51,16330,48,16340,38
2016-07-14 13:10:00,13:10:05,13:10:45,47693,47811,16330.0,47,16335.0,21,16335.0,16340.0,16335.0,16335.0,118,82,16330,32,16335,21
2016-07-14 13:11:00,13:11:16,13:11:52,47826,47864,16330.0,35,16335.0,22,16335.0,16335.0,16335.0,16335.0,24,-4,16330,33,16335,17
2016-07-14 13:12:00,13:12:50,13:12:54,47919,47963,16330.0,29,16335.0,31,16330.0,16330.0,16325.0,16325.0,59,-43,16325,14,16330,34
2016-07-14 13:13:00,13:13:04,13:13:49,47982,48030,16325.0,29,16330.0,14,16330.0,16330.0,16330.0,16330.0,44,20,16325,47,16330,26
2016-07-14 13:14:00,13:14:48,13:14:48,48094,48100,16325.0,43,16330.0,25,16330.0,16330.0,16330.0,16330.0,16,16,16330,25,16335,28
2016-07-14 13:15:00,13:15:08,13:15:29,48127,48183,16330.0,32,16335.0,28,16330.0,16335.0,16330.0,16335.0,54,-28,16335,8,16340,68
2016-07-14 13:16:00,13:16:21,13:16:33,48243,48312,16335.0,33,16340.0,55,16340.0,16340.0,16340.0,16340.0,92,68,16340,6,16345,47
2016-07-14 13:17:00,13:17:07,13:17:59,48348,48490,16340.0,36,16345.0,20,16345.0,16355.0,16345.0,16350.0,91,23,16345,33,16350,21
2016-07-14 13:18:00,13:18:00,13:18:47,48493,48581,16345.0,33,16350.0,21,16350.0,16350.0,16345.0,16345.0,51,-11,16345,18,16350,52
2016-07-14 13:19:00,13:19:03,13:19:58,48599,48691,16345.0,31,16350.0,45,16350.0,16350.0,16340.0,16340.0,67,47,16340,39,16345,19
2016-07-14 13:20:00,13:20:03,13:20:58,48700,48835,16340.0,36,16345.0,23,16345.0,16345.0,16345.0,16345.0,121,68,16340,43,16345,7
2016-07-14 13:21:00,13:21:11,13:21:20,48857,48874,16340.0,40,16345.0,3,16345.0,16345.0,16345.0,16345.0,11,5,16340,48,16350,41
2016-07-14 13:22:00,13:22:00,13:22:56,48903,49046,16345.0,14,16350.0,36,16345.0,16350.0,16345.0,16350.0,103,65,16350,18,16355,41
2016-07-14 13:23:00,13:23:05,13:23:55,49067,49172,16350.0,21,16355.0,41,16350.0,16350.0,16345.0,16345.0,101,-81,16340,69,16345,9
2016-07-14 13:24:00,13:24:07,13:24:55,49186,49288,16340.0,64,16345.0,10,16345.0,16345.0,16340.0,16340.0,95,-45,16340,11,16345,72
2016-07-14 13:25:00,13:25:04,13:25:53,49305,49412,16340.0,17,16345.0,66,16340.0,16340.0,16340.0,16340.0,77,9,16335,51,16340,10
2016-07-14 13:26:00,13:26:05,13:26:58,49432,49564,16335.0,29,16340.0,38,16335.0,16335.0,16335.0,16335.0,81,-13,16330,38,16340,56
2016-07-14 13:27:00,13:27:08,13:27:57,49578,49693,16330.0,26,16335.0,42,16330.0,16330.0,16320.0,16320.0,122,-118,16320,20,16325,26
2016-07-14 13:28:00,13:28:32,13:28:38,49750,49762,16320.0,35,16325.0,20,16325.0,16325.0,16320.0,16320.0,11,-9,16320,17,16325,40
2016-07-14 13:29:00,13:29:10,13:29:49,49789,49859,16320.0,43,16325.0,39,16325.0,16335.0,16325.0,16330.0,68,8,16325,45,16335,45
2016-07-14 13:30:00,13:30:01,13:30:56,49871,49995,16325.0,41,16330.0,12,16330.0,16330.0,16325.0,16330.0,89,-57,16330,4,16335,48
2016-07-14 13:31:00,13:31:01,13:31:42,50007,50098,16330.0,7,16335.0,45,16330.0,16330.0,16330.0,16330.0,39,-3,16325,52,16335,47
2016-07-14 13:32:00,13:32:00,13:32:50,50119,50196,16330.0,17,16335.0,40,16330.0,16335.0,16330.0,16330.0,38,-2,16325,46,16330,10
2016-07-14 13:33:00,13:33:09,13:33:58,50212,50291,16325.0,37,16330.0,41,16325.0,16325.0,16320.0,16325.0,36,-32,16320,84,16325,23
2016-07-14 13:34:00,13:34:15,13:34:56,50308,50430,16320.0,85,16325.0,22,16325.0,16325.0,16325.0,16325.0,106,61,16320,98,16325,41
2016-07-14 13:35:00,13:35:00,13:35:45,50437,50512,16320.0,85,16325.0,45,16325.0,16330.0,16325.0,16330.0,97,79,16330,58,16335,23
2016-07-14 13:36:00,13:36:57,13:36:59,50585,50632,16330.0,62,16335.0,38,16335.0,16335.0,16335.0,16335.0,88,43,16330,71,16335,10
2016-07-14 13:37:00,13:37:01,13:37:46,50638,50714,16330.0,74,16335.0,9,16335.0,16335.0,16330.0,16330.0,48,-24,16325,85,16330,42
2016-07-14 13:38:00,13:38:03,13:38:58,50736,50912,16325.0,49,16330.0,81,16325.0,16325.0,16315.0,16320.0,274,-127,16320,15,16325,42
2016-07-14 13:39:00,13:39:06,13:39:20,50929,50997,16320.0,36,16325.0,15,16325.0,16335.0,16325.0,16330.0,53,11,16325,42,16335,48
2016-07-14 13:40:00,13:40:06,13:40:43,51057,51185,16330.0,35,16335.0,22,16335.0,16345.0,16335.0,16345.0,125,29,16340,69,16345,3
2016-07-14 13:41:00,13:41:07,13:41:56,51226,51412,16340.0,70,16345.0,29,16345.0,16345.0,16340.0,16345.0,191,144,16340,19,16345,22
2016-07-14 13:42:00,13:42:02,13:42:52,51421,51573,16340.0,11,16345.0,34,16340.0,16340.0,16335.0,16335.0,130,-76,16335,2,16335,6
2016-07-14 13:43:00,13:43:14,13:43:59,51605,51726,16330.0,31,16335.0,29,16335.0,16345.0,16335.0,16340.0,122,56,16335,39,16340,7
2016-07-14 13:44:00,13:44:01,13:44:52,51732,51866,16335.0,40,16340.0,5,16340.0,16345.0,16340.0,16345.0,90,-22,16340,10,16345,34
2016-07-14 13:45:00,13:45:05,13:45:53,51891,52023,16340.0,21,16345.0,25,16340.0,16350.0,16340.0,16345.0,93,-49,16340,44,16345,7
2016-07-14 13:46:00,13:46:01,13:46:59,52035,52284,16340.0,37,16345.0,14,16345.0,16350.0,16345.0,16350.0,294,30,16345,25,16350,27
2016-07-14 13:47:00,13:47:01,13:47:49,52289,52478,16345.0,24,16350.0,33,16345.0,16355.0,16345.0,16355.0,118,47,16350,32,16360,44
2016-07-14 13:48:00,13:48:01,13:48:59,52497,52725,16355.0,43,16360.0,38,16355.0,16355.0,16350.0,16355.0,226,-109,16350,34,16355,9
2016-07-14 13:49:00,13:49:02,13:49:58,52729,53067,16350.0,34,16355.0,7,16355.0,16365.0,16350.0,16365.0,373,229,16360,51,16365,11
2016-07-14 13:50:00,13:50:10,13:50:57,53089,53289,16360.0,34,16365.0,35,16365.0,16370.0,16365.0,16370.0,180,124,16365,27,16370,12
2016-07-14 13:51:00,13:51:01,13:51:59,53300,53514,16365.0,11,16370.0,45,16370.0,16375.0,16365.0,16370.0,231,57,16365,44,16370,2
2016-07-14 13:52:00,13:52:01,13:52:59,53523,53959,16365.0,24,16370.0,27,16370.0,16390.0,16370.0,16390.0,529,202,16385,73,16390,41
2016-07-14 13:53:00,13:53:00,13:53:59,53963,54343,16385.0,73,16390.0,43,16385.0,16390.0,16385.0,16385.0,549,93,16380,53,16385,8
2016-07-14 13:54:00,13:54:00,13:54:58,54346,54575,16380.0,46,16385.0,7,16385.0,16390.0,16385.0,16385.0,249,71,16380,44,16385,4
2016-07-14 13:55:00,13:55:00,13:55:59,54578,54911,16380.0,44,16385.0,4,16385.0,16385.0,16365.0,16365.0,417,-64,16365,3,16370,52
2016-07-14 13:56:00,13:56:01,13:56:58,54920,55240,16365.0,14,16370.0,51,16365.0,16390.0,16365.0,16390.0,334,34,16385,56,16390,42
2016-07-14 13:57:00,13:57:00,13:57:57,55249,55661,16385.0,56,16390.0,43,16390.0,16390.0,16375.0,16385.0,510,-24,16380,41,16385,2
2016-07-14 13:58:00,13:58:02,13:58:59,55677,55940,16380.0,21,16385.0,61,16380.0,16385.0,16380.0,16385.0,214,44,16380,81,16385,43
2016-07-14 13:59:00,13:59:01,13:59:59,55943,56486,16380.0,81,16385.0,43,16385.0,16400.0,16375.0,16380.0,858,208,16375,74,16380,39
2016-07-14 14:00:00,14:00:00,14:00:55,56487,57748,16380.0,103,16390.0,63,16380.0,16385.0,16345.0,16375.0,2289,88,16370,57,16375,21
2016-07-14 14:01:00,14:01:01,14:01:59,57758,58280,16370.0,62,16375.0,27,16375.0,16385.0,16365.0,16365.0,756,273,16365,21,16370,53
2016-07-14 14:02:00,14:02:03,14:02:55,58292,58682,16365.0,22,16370.0,55,16365.0,16375.0,16360.0,16360.0,544,32,16360,9,16365,40
2016-07-14 14:03:00,14:03:00,14:03:59,58692,59119,16360.0,24,16365.0,39,16360.0,16365.0,16335.0,16340.0,635,-131,16335,51,16340,19
2016-07-14 14:04:00,14:04:00,14:04:58,59122,59392,16335.0,51,16340.0,19,16340.0,16350.0,16335.0,16350.0,350,84,16345,36,16350,116
2016-07-14 14:05:00,14:05:00,14:05:58,59396,59650,16345.0,44,16350.0,116,16345.0,16360.0,16345.0,16350.0,302,89,16350,42,16355,40
2016-07-14 14:06:00,14:06:01,14:06:55,59659,59786,16350.0,45,16355.0,24,16355.0,16360.0,16355.0,16355.0,155,29,16350,41,16355,10
2016-07-14 14:07:00,14:07:00,14:07:59,59799,59978,16350.0,42,16355.0,46,16355.0,16365.0,16355.0,16360.0,226,52,16360,16,16365,29
2016-07-14 14:08:00,14:08:04,14:08:53,59988,60192,16360.0,29,16365.0,20,16365.0,16370.0,16360.0,16365.0,170,-18,16360,39,16365,27
2016-07-14 14:09:00,14:09:04,14:09:57,60219,60430,16360.0,65,16365.0,31,16365.0,16370.0,16365.0,16370.0,298,207,16370,17,16375,18
