,ST,ET,sidx,eidx,bB,bBS,bA,bAS,O,H,L,C,V,OF,eB,eBS,eA,eAS
2016-09-14 08:00:00,08:00:00,08:00:58,2013,2378,16495.0,51,16500.0,97,16500.0,16510.0,16495.0,16510.0,480,226,16505,53,16510,31
2016-09-14 08:01:00,08:01:00,08:01:58,2385,2645,16505.0,52,16510.0,40,16510.0,16510.0,16495.0,16495.0,265,-1,16490,38,16495,11
2016-09-14 08:02:00,08:02:00,08:02:59,2649,2898,16490.0,38,16495.0,18,16490.0,16495.0,16485.0,16495.0,264,-24,16490,48,16495,11
2016-09-14 08:03:00,08:03:02,08:03:57,2905,3101,16490.0,48,16495.0,17,16490.0,16495.0,16490.0,16490.0,187,-43,16485,29,16490,15
2016-09-14 08:04:00,08:04:00,08:04:55,3103,3267,16485.0,48,16490.0,15,16485.0,16490.0,16485.0,16485.0,166,-137,16485,26,16490,44
2016-09-14 08:05:00,08:05:00,08:05:59,3273,3464,16485.0,24,16490.0,45,16485.0,16490.0,16475.0,16480.0,210,-185,16475,23,16480,40
2016-09-14 08:06:00,08:06:00,08:06:50,3467,3561,16475.0,23,16480.0,40,16475.0,16480.0,16475.0,16475.0,23,-9,16475,13,16480,46
2016-09-14 08:07:00,08:07:00,08:07:54,3566,3708,16475.0,18,16480.0,46,16475.0,16480.0,16475.0,16480.0,134,44,16480,44,16485,41
2016-09-14 08:08:00,08:08:00,08:08:50,3718,3956,16480.0,45,16485.0,41,16485.0,16490.0,16480.0,16490.0,258,-78,16485,31,16490,37
2016-09-14 08:09:00,08:09:00,08:09:35,3974,4068,16485.0,18,16490.0,54,16490.0,16490.0,16485.0,16485.0,110,-74,16480,57,16485,15
2016-09-14 08:10:00,08:10:06,08:10:58,4089,4290,16480.0,55,16485.0,41,16480.0,16490.0,16480.0,16490.0,294,-29,16485,27,16490,23
2016-09-14 08:11:00,08:11:37,08:11:59,4322,4481,16485.0,31,16490.0,36,16485.0,16490.0,16485.0,16485.0,225,-51,16485,35,16490,36
2016-09-14 08:12:00,08:12:00,08:12:59,4484,4667,16485.0,35,16490.0,36,16485.0,16505.0,16485.0,16505.0,172,106,16500,38,16505,52
2016-09-14 08:13:00,08:13:02,08:13:54,4675,4962,16500.0,39,16505.0,49,16505.0,16505.0,16500.0,16500.0,473,-123,16495,64,16500,23
2016-09-14 08:14:00,08:14:07,08:14:51,4979,5117,16495.0,72,16500.0,40,16500.0,16500.0,16495.0,16495.0,188,-92,16490,60,16495,15
2016-09-14 08:15:00,08:15:00,08:15:47,5127,5330,16490.0,54,16495.0,19,16490.0,16495.0,16490.0,16495.0,230,-104,16490,24,16495,18
2016-09-14 08:16:00,08:16:00,08:16:54,5360,5470,16490.0,19,16495.0,33,16495.0,16500.0,16490.0,16500.0,78,-18,16495,23,16500,32
2016-09-14 08:17:00,08:17:00,08:17:57,5478,5699,16495.0,19,16500.0,36,16500.0,16515.0,16500.0,16515.0,231,144,16515,17,16520,60
2016-09-14 08:18:00,08:18:00,08:18:57,5705,6102,16515.0,14,16520.0,60,16515.0,16545.0,16515.0,16540.0,477,222,16535,52,16540,4
2016-09-14 08:19:00,08:19:00,08:19:59,6110,6526,16535.0,43,16540.0,19,16540.0,16545.0,16525.0,16530.0,548,-213,16525,38,16530,11
2016-09-14 08:20:00,08:20:00,08:20:57,6528,6817,16525.0,36,16530.0,11,16530.0,16540.0,16530.0,16540.0,343,64,16535,52,16540,18
2016-09-14 08:21:00,08:21:00,08:21:59,6826,6988,16535.0,54,16540.0,12,16540.0,16540.0,16530.0,16535.0,196,-5,16535,52,16540,42
2016-09-14 08:22:00,08:22:00,08:22:48,6991,7148,16535.0,52,16540.0,42,16535.0,16535.0,16530.0,16535.0,239,-49,16530,33,16535,15
2016-09-14 08:23:00,08:23:00,08:23:51,7154,7302,16530.0,34,16535.0,15,16535.0,16535.0,16525.0,16525.0,123,-95,16525,29,16530,43
2016-09-14 08:24:00,08:24:03,08:24:38,7320,7348,16525.0,26,16530.0,47,16530.0,16530.0,16530.0,16530.0,2,2,16525,23,16530,44
2016-09-14 08:25:00,08:25:09,08:25:40,7383,7474,16525.0,19,16530.0,69,16525.0,16525.0,16525.0,16525.0,77,-51,16525,10,16530,48
2016-09-14 08:26:00,08:26:00,08:26:36,7488,7541,16525.0,14,16530.0,58,16530.0,16530.0,16525.0,16525.0,20,2,16520,43,16525,50
2016-09-14 08:27:00,08:27:00,08:27:53,7565,7691,16520.0,40,16525.0,53,16525.0,16530.0,16520.0,16525.0,74,48,16525,58,16530,42
2016-09-14 08:28:00,08:28:00,08:28:56,7696,7946,16525.0,65,16530.0,42,16530.0,16530.0,16520.0,16530.0,256,26,16525,37,16530,9
2016-09-14 08:29:00,08:29:00,08:29:55,7951,8133,16525.0,42,16530.0,8,16525.0,16535.0,16525.0,16535.0,121,62,16530,33,16535,32
2016-09-14 08:30:00,08:30:01,08:30:44,8144,8303,16530.0,38,16535.0,37,16530.0,16540.0,16530.0,16535.0,181,-13,16535,19,16540,34
2016-09-14 08:31:00,08:31:00,08:31:23,8316,8341,16535.0,27,16540.0,33,16540.0,16540.0,16535.0,16535.0,11,9,16535,47,16540,25
2016-09-14 08:32:00,08:32:03,08:32:43,8364,8466,16535.0,31,16540.0,39,16535.0,16540.0,16530.0,16535.0,89,-17,16535,25,16540,55
2016-09-14 08:33:00,08:33:06,08:33:52,8491,8631,16535.0,25,16540.0,68,16540.0,16540.0,16525.0,16525.0,185,43,16525,25,16530,26
2016-09-14 08:34:00,08:34:07,08:34:51,8660,8836,16525.0,69,16530.0,35,16530.0,16530.0,16520.0,16525.0,208,-26,16520,76,16525,17
2016-09-14 08:35:00,08:35:01,08:35:40,8843,8916,16520.0,74,16525.0,20,16525.0,16525.0,16520.0,16520.0,101,-57,16515,52,16525,64
2016-09-14 08:36:00,08:36:14,08:36:52,8957,9024,16520.0,18,16525.0,58,16520.0,16520.0,16515.0,16515.0,28,-26,16515,9,16520,86
2016-09-14 08:37:00,08:37:01,08:37:45,9039,9150,16515.0,7,16520.0,87,16515.0,16515.0,16505.0,16505.0,41,-39,16505,15,16510,57
2016-09-14 08:38:00,08:38:04,08:38:57,9175,9388,16505.0,40,16510.0,48,16510.0,16515.0,16505.0,16510.0,260,52,16505,43,16510,9
2016-09-14 08:39:00,08:39:56,08:39:58,9461,9513,16510.0,30,16515.0,60,16515.0,16515.0,16515.0,16515.0,91,91,16515,2,16520,66
2016-09-14 08:40:00,08:40:10,08:40:40,9522,9627,16515.0,15,16520.0,67,16515.0,16525.0,16515.0,16515.0,105,31,16515,7,16520,50
2016-09-14 08:41:00,08:41:03,08:41:54,9655,9720,16515.0,31,16520.0,46,16520.0,16520.0,16510.0,16510.0,116,-106,16505,44,16510,47
2016-09-14 08:42:00,08:42:03,08:42:21,9730,9747,16505.0,26,16510.0,56,16510.0,16510.0,16510.0,16510.0,18,18,16505,37,16510,57
2016-09-14 08:43:00,08:43:01,08:43:35,9779,9910,16505.0,34,16510.0,70,16505.0,16505.0,16505.0,16505.0,170,15,16500,30,16505,5
2016-09-14 08:44:00,08:44:01,08:44:21,9936,9984,16500.0,16,16505.0,49,16500.0,16510.0,16500.0,16510.0,82,-20,16505,14,16510,66
2016-09-14 08:45:00,08:45:00,08:45:48,10000,10155,16505.0,14,16510.0,70,16505.0,16505.0,16495.0,16495.0,224,-76,16490,46,16495,14
2016-09-14 08:46:00,08:46:10,08:46:58,10191,10348,16490.0,88,16495.0,37,16495.0,16500.0,16495.0,16495.0,216,8,16495,24,16500,38
2016-09-14 08:47:00,08:47:17,08:47:59,10375,10439,16495.0,24,16500.0,61,16495.0,16495.0,16495.0,16495.0,33,-21,16495,15,16500,69
2016-09-14 08:48:00,08:48:01,08:48:55,10442,10524,16495.0,13,16500.0,62,16495.0,16495.0,16495.0,16495.0,42,-20,16490,50,16495,20
2016-09-14 08:49:00,08:49:08,08:49:53,10535,10686,16490.0,44,16495.0,64,16490.0,16490.0,16485.0,16485.0,262,-24,16485,9,16490,56
2016-09-14 08:50:00,08:50:02,08:50:45,10695,10813,16485.0,11,16490.0,63,16485.0,16490.0,16485.0,16490.0,135,67,16485,46,16490,22
2016-09-14 08:51:00,08:51:20,08:51:45,10845,10897,16485.0,43,16490.0,30,16490.0,16490.0,16485.0,16485.0,105,-95,16485,17,16490,44
2016-09-14 08:52:00,08:52:17,08:52:49,10928,11131,16485.0,33,16490.0,34,16490.0,16500.0,16490.0,16495.0,345,109,16495,25,16500,50
2016-09-14 08:53:00,08:53:00,08:53:57,11147,11293,16495.0,48,16500.0,35,16495.0,16500.0,16495.0,16500.0,172,-25,16495,97,16500,2
2016-09-14 08:54:00,08:54:02,08:54:59,11307,11413,16495.0,64,16500.0,42,16495.0,16500.0,16495.0,16495.0,95,-67,16490,48,16495,2
2016-09-14 08:55:00,08:55:00,08:55:27,11414,11462,16490.0,46,16495.0,15,16495.0,16495.0,16495.0,16495.0,25,13,16490,40,16500,48
2016-09-14 08:56:00,08:56:05,08:56:28,11478,11542,16490.0,40,16495.0,21,16495.0,16495.0,16495.0,16495.0,45,31,16495,23,16500,28
2016-09-14 08:57:00,08:57:02,08:57:40,11564,11690,16495.0,42,16500.0,13,16500.0,16500.0,16495.0,16495.0,234,-2,16495,22,16500,41
2016-09-14 08:58:00,08:58:05,08:58:44,11708,11744,16495.0,30,16500.0,51,16495.0,16495.0,16495.0,16495.0,19,5,16495,11,16500,50
2016-09-14 08:59:00,08:59:07,08:59:55,11762,11884,16495.0,30,16500.0,45,16500.0,16500.0,16500.0,16500.0,107,8,16500,3,16505,52
2016-09-14 09:00:00,09:00:01,09:00:59,11895,12023,16495.0,65,16500.0,9,16500.0,16500.0,16485.0,16490.0,132,-18,16485,62,16490,7
2016-09-14 09:01:00,09:01:21,09:01:58,12035,12084,16485.0,64,16490.0,21,16490.0,16490.0,16490.0,16490.0,42,26,16485,88,16490,15
2016-09-14 09:02:00,09:02:02,09:02:49,12089,12225,16485.0,88,16490.0,8,16490.0,16495.0,16485.0,16485.0,138,-28,16485,31,16490,37
2016-09-14 09:03:00,09:03:05,09:03:41,12235,12324,16485.0,42,16490.0,34,16490.0,16490.0,16485.0,16485.0,99,-43,16485,9,16490,40
2016-09-14 09:04:00,09:04:21,09:04:22,12350,12379,16485.0,10,16490.0,29,16490.0,16490.0,16490.0,16490.0,40,40,16485,20,16490,30
2016-09-14 09:05:00,09:05:04,09:05:58,12403,12558,16485.0,39,16490.0,21,16490.0,16495.0,16490.0,16495.0,270,-2,16495,10,16500,75
2016-09-14 09:06:00,09:06:03,09:06:28,12570,12609,16495.0,32,16500.0,66,16495.0,16495.0,16495.0,16495.0,36,-36,16495,9,16500,74
2016-09-14 09:07:00,09:07:07,09:07:24,12635,12656,16495.0,21,16500.0,77,16495.0,16500.0,16495.0,16500.0,2,0,16495,33,16500,75
2016-09-14 09:08:00,09:08:16,09:08:44,12690,12793,16495.0,37,16500.0,73,16495.0,16505.0,16495.0,16500.0,142,62,16500,29,16505,34
2016-09-14 09:09:00,09:09:05,09:09:59,12825,12963,16500.0,43,16505.0,35,16505.0,16510.0,16505.0,16510.0,119,119,16505,47,16510,5
2016-09-14 09:10:00,09:10:00,09:10:57,12968,13188,16505.0,31,16510.0,33,16510.0,16520.0,16510.0,16520.0,227,141,16515,50,16520,4
2016-09-14 09:11:00,09:11:03,09:11:53,13195,13299,16515.0,50,16520.0,16,16520.0,16525.0,16520.0,16520.0,113,-69,16515,57,16525,38
2016-09-14 09:12:00,09:12:10,09:12:38,13318,13392,16520.0,17,16525.0,37,16520.0,16520.0,16520.0,16520.0,79,-7,16520,61,16525,22
2016-09-14 09:13:00,09:13:13,09:13:21,13433,13478,16520.0,31,16525.0,41,16520.0,16525.0,16520.0,16525.0,61,-1,16520,49,16525,17
2016-09-14 09:14:00,09:14:21,09:14:54,13525,13623,16520.0,47,16525.0,44,16525.0,16530.0,16525.0,16525.0,116,14,16525,9,16530,38
2016-09-14 09:15:00,09:15:15,09:15:58,13652,13837,16525.0,37,16530.0,29,16530.0,16535.0,16530.0,16530.0,186,-16,16525,76,16535,68
2016-09-14 09:16:00,09:16:00,09:16:57,13842,14055,16525.0,76,16530.0,5,16530.0,16540.0,16530.0,16535.0,276,-34,16535,48,16540,45
2016-09-14 09:17:00,09:17:02,09:17:57,14065,14408,16535.0,40,16540.0,56,16540.0,16560.0,16535.0,16560.0,502,295,16560,5,16565,63
2016-09-14 09:18:00,09:18:01,09:18:55,14418,14607,16560.0,36,16565.0,61,16565.0,16565.0,16565.0,16565.0,138,122,16560,151,16565,57
2016-09-14 09:19:00,09:19:03,09:19:56,14621,14797,16560.0,141,16565.0,59,16565.0,16565.0,16555.0,16560.0,188,-92,16555,41,16560,68
2016-09-14 09:20:00,09:20:00,09:20:50,14799,14942,16555.0,51,16560.0,68,16555.0,16560.0,16555.0,16555.0,168,-41,16550,152,16555,26
2016-09-14 09:21:00,09:21:04,09:21:58,14954,15179,16550.0,148,16555.0,31,16555.0,16555.0,16540.0,16550.0,329,-191,16545,22,16550,58
2016-09-14 09:22:00,09:22:01,09:22:57,15184,15340,16545.0,20,16550.0,62,16545.0,16550.0,16540.0,16540.0,150,-115,16540,43,16545,27
2016-09-14 09:23:00,09:23:05,09:23:55,15354,15454,16540.0,46,16545.0,24,16545.0,16550.0,16540.0,16550.0,94,82,16545,46,16550,23
2016-09-14 09:24:00,09:24:01,09:24:05,15465,15524,16545.0,38,16550.0,36,16545.0,16545.0,16545.0,16545.0,79,-67,16545,6,16550,48
2016-09-14 09:25:00,09:25:01,09:25:57,15591,15724,16545.0,27,16550.0,45,16545.0,16545.0,16535.0,16535.0,146,-74,16535,50,16540,34
2016-09-14 09:26:00,09:26:06,09:26:39,15742,15781,16535.0,50,16540.0,31,16540.0,16540.0,16535.0,16535.0,9,-3,16535,18,16540,51
2016-09-14 09:27:00,09:27:01,09:27:24,15800,15841,16535.0,39,16540.0,56,16535.0,16535.0,16535.0,16535.0,53,-53,16535,10,16540,49
2016-09-14 09:28:00,09:28:15,09:28:17,15887,15931,16535.0,46,16540.0,38,16540.0,16545.0,16540.0,16545.0,69,69,16540,49,16545,30
2016-09-14 09:29:00,09:29:13,09:29:46,15972,16015,16540.0,39,16545.0,45,16545.0,16545.0,16540.0,16540.0,36,-30,16540,14,16545,40
2016-09-14 09:30:00,09:30:02,09:30:58,16038,16371,16540.0,25,16545.0,51,16540.0,16560.0,16540.0,16555.0,370,108,16550,40,16555,9
2016-09-14 09:31:00,09:31:00,09:31:54,16379,16649,16550.0,37,16555.0,17,16555.0,16560.0,16550.0,16550.0,253,11,16550,17,16555,60
2016-09-14 09:32:00,09:32:02,09:32:54,16659,16855,16550.0,17,16555.0,60,16550.0,16560.0,16550.0,16560.0,195,72,16555,65,16560,3
2016-09-14 09:33:00,09:33:02,09:33:56,16875,17135,16555.0,46,16560.0,49,16560.0,16570.0,16560.0,16565.0,332,233,16560,59,16565,31
2016-09-14 09:34:00,09:34:03,09:34:58,17141,17320,16560.0,61,16565.0,30,16565.0,16565.0,16555.0,16560.0,206,27,16555,75,16560,8
2016-09-14 09:35:00,09:35:00,09:35:56,17327,17539,16555.0,76,16560.0,7,16560.0,16570.0,16560.0,16560.0,215,99,16560,88,16565,37
2016-09-14 09:36:00,09:36:03,09:36:51,17551,17658,16560.0,96,16565.0,14,16565.0,16565.0,16565.0,16565.0,83,83,16565,47,16570,44
2016-09-14 09:37:00,09:37:08,09:37:41,17681,17746,16565.0,65,16570.0,39,16570.0,16570.0,16565.0,16565.0,63,61,16565,59,16570,48
2016-09-14 09:38:00,09:38:05,09:38:49,17774,17887,16565.0,97,16570.0,31,16565.0,16565.0,16565.0,16565.0,166,-107,16560,91,16570,54
2016-09-14 09:39:00,09:39:02,09:39:54,17908,18128,16560.0,88,16565.0,33,16565.0,16565.0,16555.0,16555.0,327,-228,16555,1,16560,50
2016-09-14 09:40:00,09:40:01,09:40:59,18135,18287,16555.0,12,16560.0,51,16555.0,16565.0,16555.0,16565.0,154,-24,16560,42,16565,14
2016-09-14 09:41:00,09:41:00,09:41:56,18292,18443,16560.0,39,16565.0,23,16565.0,16565.0,16555.0,16555.0,110,-8,16555,39,16560,28
2016-09-14 09:42:00,09:42:04,09:42:58,18454,18587,16555.0,34,16560.0,32,16560.0,16560.0,16555.0,16560.0,98,42,16560,15,16565,40
2016-09-14 09:43:00,09:43:00,09:43:08,18592,18613,16560.0,14,16565.0,41,16560.0,16560.0,16560.0,16560.0,19,-11,16560,8,16565,38
2016-09-14 09:44:00,09:44:09,09:44:28,18657,18751,16560.0,36,16565.0,37,16560.0,16560.0,16560.0,16560.0,92,38,16555,48,16560,18
2016-09-14 09:45:00,09:45:26,09:45:50,18790,18868,16555.0,32,16560.0,53,16560.0,16560.0,16560.0,16560.0,96,-24,16555,39,16560,13
2016-09-14 09:46:00,09:46:00,09:46:44,18878,18991,16555.0,36,16560.0,30,16555.0,16560.0,16555.0,16560.0,153,77,16555,55,16565,57
2016-09-14 09:47:00,09:47:07,09:47:56,19010,19115,16555.0,65,16560.0,22,16560.0,16560.0,16555.0,16555.0,69,-3,16550,47,16555,36
2016-09-14 09:48:00,09:48:02,09:48:54,19126,19241,16550.0,42,16555.0,19,16555.0,16560.0,16555.0,16560.0,74,58,16555,41,16560,2
2016-09-14 09:49:00,09:49:18,09:49:37,19260,19330,16555.0,48,16560.0,22,16555.0,16560.0,16555.0,16560.0,82,-12,16555,51,16565,55
2016-09-14 09:50:00,09:50:20,09:50:45,19359,19427,16560.0,25,16565.0,59,16565.0,16570.0,16565.0,16570.0,57,57,16565,53,16570,25
2016-09-14 09:51:00,09:51:07,09:51:55,19458,19599,16565.0,51,16570.0,47,16570.0,16580.0,16565.0,16580.0,147,21,16575,50,16580,142
2016-09-14 09:52:00,09:52:13,09:52:31,19614,19737,16575.0,59,16580.0,142,16575.0,16575.0,16570.0,16570.0,173,-51,16565,47,16570,22
2016-09-14 09:53:00,09:53:00,09:53:00,0,0,0.0,0,0.0,0,16570.0,16570.0,16570.0,16570.0,0,0,0,0,0,0
2016-09-14 09:54:00,09:54:05,09:54:41,19818,19844,16565.0,82,16570.0,32,16570.0,16570.0,16565.0,16565.0,9,5,16565,80,16570,49
2016-09-14 09:55:00,09:55:08,09:55:47,19868,19933,16565.0,87,16570.0,39,16570.0,16570.0,16565.0,16565.0,21,19,16565,77,16570,40
2016-09-14 09:56:00,09:56:00,09:56:38,19944,20010,16565.0,85,16570.0,22,16570.0,16570.0,16570.0,16570.0,49,5,16565,85,16570,51
2016-09-14 09:57:00,09:57:00,09:57:54,20029,20128,16565.0,79,16570.0,48,16570.0,16570.0,16565.0,16565.0,47,31,16565,70,16570,48
2016-09-14 09:58:00,09:58:27,09:58:59,20153,20290,16565.0,62,16570.0,50,16565.0,16565.0,16560.0,16565.0,177,-68,16565,17,16570,45
2016-09-14 09:59:00,09:59:08,09:59:38,20309,20363,16565.0,41,16570.0,34,16565.0,16570.0,16565.0,16570.0,32,-14,16565,39,16570,36
2016-09-14 10:00:00,10:00:08,10:00:45,20399,20472,16565.0,25,16570.0,42,16565.0,16565.0,16565.0,16565.0,79,-1,16565,25,16570,43
2016-09-14 10:01:00,10:01:25,10:01:52,20512,20584,16565.0,51,16570.0,34,16565.0,16570.0,16565.0,16570.0,84,64,16565,45,16570,18
2016-09-14 10:02:00,10:02:01,10:02:51,20600,20726,16565.0,48,16570.0,28,16565.0,16565.0,16565.0,16565.0,120,-58,16560,47,16565,6
2016-09-14 10:03:00,10:03:12,10:03:59,20737,20810,16560.0,46,16565.0,9,16565.0,16570.0,16565.0,16570.0,42,35,16565,51,16570,23
2016-09-14 10:04:00,10:04:07,10:04:46,20820,20962,16565.0,62,16570.0,14,16565.0,16570.0,16565.0,16570.0,190,4,16570,7,16575,44
2016-09-14 10:05:00,10:05:01,10:05:57,20989,21249,16570.0,76,16575.0,15,16575.0,16575.0,16570.0,16575.0,351,-49,16570,20,16575,40
2016-09-14 10:06:00,10:06:03,10:06:53,21263,21409,16570.0,52,16575.0,26,16575.0,16575.0,16570.0,16570.0,138,19,16565,55,16570,21
2016-09-14 10:07:00,10:07:04,10:07:54,21420,21579,16565.0,55,16570.0,28,16565.0,16570.0,16560.0,16560.0,227,-75,16560,27,16565,39
2016-09-14 10:08:00,10:08:05,10:08:54,21599,21724,16560.0,52,16565.0,27,16565.0,16565.0,16560.0,16560.0,146,-12,16555,46,16560,5
2016-09-14 10:09:00,10:09:03,10:09:42,21743,21783,16555.0,38,16560.0,57,16555.0,16555.0,16550.0,16550.0,37,-37,16550,57,16555,37
2016-09-14 10:10:00,10:10:15,10:10:43,21810,21873,16550.0,59,16555.0,38,16555.0,16560.0,16555.0,16560.0,63,63,16555,56,16560,25
2016-09-14 10:11:00,10:11:12,10:11:28,21894,21943,16555.0,43,16560.0,62,16555.0,16555.0,16555.0,16555.0,51,-51,16550,54,16555,26
2016-09-14 10:12:00,10:12:06,10:12:27,21974,22036,16550.0,56,16555.0,32,16555.0,16555.0,16555.0,16555.0,63,53,16550,58,16555,21
2016-09-14 10:13:00,10:13:15,10:13:56,22072,22233,16550.0,53,16555.0,32,16555.0,16555.0,16550.0,16555.0,180,32,16550,54,16555,4
2016-09-14 10:14:00,10:14:34,10:14:56,22282,22323,16550.0,56,16555.0,11,16555.0,16555.0,16550.0,16550.0,25,1,16550,42,16555,34
2016-09-14 10:15:00,10:15:05,10:15:10,22336,22358,16550.0,56,16555.0,22,16555.0,16555.0,16555.0,16555.0,20,20,16550,52,16555,12
2016-09-14 10:16:00,10:16:29,10:16:54,22411,22422,16555.0,52,16560.0,41,16555.0,16555.0,16555.0,16555.0,2,-2,16555,48,16560,43
2016-09-14 10:17:00,10:17:11,10:17:25,22437,22493,16555.0,54,16560.0,30,16560.0,16560.0,16560.0,16560.0,60,38,16560,48,16565,34
2016-09-14 10:18:00,10:18:16,10:18:26,22515,22539,16560.0,64,16565.0,30,16565.0,16570.0,16565.0,16570.0,38,38,16565,61,16570,50
2016-09-14 10:19:00,10:19:23,10:19:49,22574,22656,16565.0,55,16570.0,62,16570.0,16570.0,16560.0,16560.0,110,-28,16560,31,16565,38
2016-09-14 10:20:00,10:20:16,10:20:16,22683,22686,16560.0,30,16565.0,38,16565.0,16565.0,16565.0,16565.0,5,5,16560,33,16565,33
2016-09-14 10:21:00,10:21:28,10:21:50,22740,22779,16560.0,48,16565.0,25,16560.0,16560.0,16560.0,16560.0,35,-11,16560,30,16565,37
2016-09-14 10:22:00,10:22:01,10:22:59,22793,22931,16560.0,53,16565.0,22,16565.0,16565.0,16560.0,16560.0,160,-116,16555,44,16560,14
2016-09-14 10:23:00,10:23:31,10:23:37,22959,23006,16555.0,44,16560.0,36,16555.0,16555.0,16555.0,16555.0,76,-28,16550,53,16555,50
2016-09-14 10:24:00,10:24:16,10:24:59,23052,23173,16550.0,49,16555.0,18,16555.0,16560.0,16555.0,16555.0,113,-25,16550,51,16555,8
2016-09-14 10:25:00,10:25:00,10:25:16,23176,23248,16550.0,51,16555.0,8,16555.0,16555.0,16555.0,16555.0,81,15,16550,40,16555,22
2016-09-14 10:26:00,10:26:07,10:26:28,23303,23368,16550.0,33,16555.0,40,16550.0,16550.0,16550.0,16550.0,64,-64,16545,68,16555,48
2016-09-14 10:27:00,10:27:15,10:27:55,23404,23506,16550.0,26,16555.0,40,16555.0,16555.0,16550.0,16550.0,121,-99,16550,39,16555,49
2016-09-14 10:28:00,10:28:05,10:28:59,23511,23702,16550.0,43,16555.0,49,16550.0,16555.0,16550.0,16555.0,220,-48,16555,42,16560,49
2016-09-14 10:29:00,10:29:11,10:29:58,23714,23820,16555.0,45,16560.0,57,16555.0,16555.0,16550.0,16555.0,96,-48,16555,75,16560,73
2016-09-14 10:30:00,10:30:10,10:30:48,23833,23933,16555.0,76,16560.0,79,16560.0,16565.0,16555.0,16565.0,124,108,16565,63,16570,57
2016-09-14 10:31:00,10:31:03,10:31:52,23955,24095,16565.0,89,16570.0,42,16570.0,16580.0,16570.0,16575.0,152,94,16570,62,16575,54
2016-09-14 10:32:00,10:32:41,10:32:56,24139,24231,16570.0,38,16575.0,74,16570.0,16570.0,16570.0,16570.0,125,57,16565,56,16570,21
2016-09-14 10:33:00,10:33:17,10:33:17,24251,24251,16565.0,53,16570.0,24,16565.0,16565.0,16565.0,16565.0,1,-1,16565,52,16570,38
2016-09-14 10:34:00,10:34:26,10:34:43,24286,24334,16565.0,51,16570.0,44,16570.0,16570.0,16570.0,16570.0,80,72,16565,57,16570,13
2016-09-14 10:35:00,10:35:01,10:35:20,24356,24383,16565.0,50,16570.0,21,16570.0,16570.0,16570.0,16570.0,35,33,16570,29,16575,74
2016-09-14 10:36:00,10:36:25,10:36:49,24419,24497,16570.0,54,16575.0,73,16575.0,16575.0,16575.0,16575.0,159,21,16575,17,16580,131
2016-09-14 10:37:00,10:37:01,10:37:48,24503,24551,16575.0,4,16580.0,131,16575.0,16575.0,16570.0,16570.0,32,-12,16570,24,16575,34
2016-09-14 10:38:00,10:38:39,10:38:44,24575,24609,16570.0,40,16575.0,35,16575.0,16575.0,16570.0,16570.0,35,33,16570,36,16575,24
2016-09-14 10:39:00,10:39:27,10:39:27,24632,24632,16570.0,45,16575.0,54,16570.0,16570.0,16570.0,16570.0,3,-3,16570,42,16575,38
2016-09-14 10:40:00,10:40:19,10:40:23,24652,24664,16570.0,47,16575.0,54,16575.0,16575.0,16570.0,16570.0,16,14,16570,60,16575,37
2016-09-14 10:41:00,10:41:04,10:41:45,24672,24734,16570.0,64,16575.0,37,16575.0,16580.0,16575.0,16580.0,64,64,16575,75,16580,82
2016-09-14 10:42:00,10:42:13,10:42:56,24748,24821,16575.0,77,16580.0,84,16580.0,16580.0,16575.0,16575.0,74,-72,16575,28,16580,92
2016-09-14 10:43:00,10:43:31,10:43:52,24841,24901,16575.0,41,16580.0,86,16575.0,16575.0,16575.0,16575.0,101,-69,16575,2,16580,100
2016-09-14 10:44:00,10:44:24,10:44:58,24919,24944,16575.0,17,16580.0,100,16575.0,16575.0,16570.0,16570.0,25,-25,16570,39,16575,18
2016-09-14 10:45:00,10:45:05,10:45:32,24954,24995,16570.0,45,16575.0,11,16575.0,16575.0,16575.0,16575.0,24,10,16570,48,16580,101
2016-09-14 10:46:00,10:46:58,10:46:58,25044,25044,16575.0,36,16580.0,101,16580.0,16580.0,16580.0,16580.0,1,1,16575,35,16580,100
2016-09-14 10:47:00,10:47:04,10:47:37,25047,25069,16575.0,35,16580.0,100,16575.0,16580.0,16575.0,16580.0,4,2,16575,48,16580,93
2016-09-14 10:48:00,10:48:14,10:48:18,25092,25097,16575.0,58,16580.0,96,16575.0,16580.0,16575.0,16580.0,11,9,16575,62,16580,82
2016-09-14 10:49:00,10:49:14,10:49:39,25115,25132,16575.0,77,16580.0,82,16575.0,16580.0,16575.0,16580.0,3,1,16575,67,16580,80
2016-09-14 10:50:00,10:50:08,10:50:57,25143,25169,16575.0,63,16580.0,82,16580.0,16580.0,16575.0,16575.0,15,-7,16575,34,16580,84
2016-09-14 10:51:00,10:51:13,10:51:35,25184,25208,16575.0,49,16580.0,81,16580.0,16580.0,16575.0,16580.0,5,3,16575,62,16580,75
2016-09-14 10:52:00,10:52:10,10:52:38,25228,25283,16575.0,53,16580.0,83,16580.0,16580.0,16570.0,16570.0,63,-57,16570,43,16575,59
2016-09-14 10:53:00,10:53:04,10:53:51,25301,25348,16570.0,53,16575.0,57,16570.0,16575.0,16570.0,16575.0,71,69,16570,55,16575,27
2016-09-14 10:54:00,10:54:00,10:54:48,25356,25380,16570.0,63,16575.0,21,16575.0,16575.0,16570.0,16570.0,6,4,16570,56,16575,111
2016-09-14 10:55:00,10:55:00,10:55:51,25385,25424,16570.0,55,16575.0,112,16570.0,16575.0,16570.0,16575.0,20,18,16575,16,16580,162
2016-09-14 10:56:00,10:56:20,10:56:53,25452,25512,16575.0,35,16580.0,161,16575.0,16580.0,16575.0,16580.0,48,-36,16575,62,16580,142
2016-09-14 10:57:00,10:57:00,10:57:00,0,0,0.0,0,0.0,0,16580.0,16580.0,16580.0,16580.0,0,0,0,0,0,0
2016-09-14 10:58:00,10:58:12,10:58:37,25572,25589,16575.0,77,16580.0,150,16575.0,16580.0,16575.0,16580.0,5,3,16575,71,16580,141
2016-09-14 10:59:00,10:59:20,10:59:59,25616,25680,16575.0,71,16580.0,143,16575.0,16585.0,16575.0,16585.0,91,89,16580,79,16590,81
2016-09-14 11:00:00,11:00:01,11:00:57,25683,25742,16580.0,80,16585.0,2,16585.0,16590.0,16585.0,16590.0,11,11,16585,77,16590,61
2016-09-14 11:01:00,11:01:00,11:01:38,25745,25779,16585.0,78,16590.0,60,16590.0,16590.0,16585.0,16590.0,6,4,16585,80,16590,54
2016-09-14 11:02:00,11:02:22,11:02:42,25800,25820,16585.0,84,16590.0,54,16590.0,16590.0,16585.0,16590.0,29,27,16585,80,16590,36
2016-09-14 11:03:00,11:03:00,11:03:54,25826,25969,16585.0,80,16590.0,40,16585.0,16585.0,16585.0,16585.0,158,-91,16585,7,16590,80
2016-09-14 11:04:00,11:04:02,11:04:39,25980,26020,16585.0,17,16590.0,74,16585.0,16585.0,16585.0,16585.0,17,-11,16585,4,16590,69
2016-09-14 11:05:00,11:05:13,11:05:46,26039,26069,16585.0,6,16590.0,67,16585.0,16585.0,16585.0,16585.0,19,-19,16585,16,16590,67
2016-09-14 11:06:00,11:06:49,11:06:49,26091,26097,16585.0,39,16590.0,44,16590.0,16590.0,16590.0,16590.0,21,21,16585,41,16590,32
2016-09-14 11:07:00,11:07:00,11:07:57,26107,26227,16585.0,37,16590.0,38,16590.0,16590.0,16585.0,16585.0,105,-23,16580,62,16590,45
2016-09-14 11:08:00,11:08:02,11:08:04,26237,26245,16585.0,15,16590.0,40,16585.0,16585.0,16585.0,16585.0,9,-5,16585,3,16590,41
2016-09-14 11:09:00,11:09:19,11:09:38,26286,26330,16585.0,44,16590.0,37,16585.0,16590.0,16585.0,16590.0,39,11,16585,67,16590,6
2016-09-14 11:10:00,11:10:00,11:10:00,0,0,0.0,0,0.0,0,16590.0,16590.0,16590.0,16590.0,0,0,0,0,0,0
2016-09-14 11:11:00,11:11:00,11:11:38,26374,26393,16590.0,51,16595.0,83,16595.0,16595.0,16590.0,16590.0,6,4,16590,57,16595,77
2016-09-14 11:12:00,11:12:03,11:12:28,26404,26502,16590.0,46,16595.0,74,16595.0,16595.0,16590.0,16590.0,117,-73,16585,60,16590,24
2016-09-14 11:13:00,11:13:29,11:13:50,26535,26544,16585.0,70,16590.0,32,16590.0,16590.0,16585.0,16585.0,2,0,16585,68,16590,31
2016-09-14 11:14:00,11:14:00,11:14:57,26548,26633,16585.0,68,16590.0,33,16590.0,16590.0,16580.0,16585.0,76,-34,16580,68,16585,19
2016-09-14 11:15:00,11:15:05,11:15:05,26640,26646,16580.0,70,16585.0,14,16585.0,16585.0,16585.0,16585.0,13,13,16585,11,16590,59
2016-09-14 11:16:00,11:16:21,11:16:23,26688,26690,16585.0,34,16590.0,55,16590.0,16590.0,16590.0,16590.0,2,2,16585,33,16590,53
2016-09-14 11:17:00,11:17:12,11:17:43,26706,26717,16585.0,31,16590.0,59,16585.0,16590.0,16585.0,16590.0,2,0,16585,47,16590,32
2016-09-14 11:18:00,11:18:01,11:18:40,26732,26781,16585.0,34,16590.0,49,16590.0,16590.0,16585.0,16585.0,25,-19,16585,3,16590,74
2016-09-14 11:19:00,11:19:40,11:19:54,26815,26852,16585.0,5,16590.0,81,16585.0,16585.0,16585.0,16585.0,36,-12,16585,2,16590,72
2016-09-14 11:20:00,11:20:02,11:20:55,26862,26909,16585.0,4,16590.0,70,16585.0,16585.0,16585.0,16585.0,14,-6,16580,69,16585,2
2016-09-14 11:21:00,11:21:00,11:21:00,0,0,0.0,0,0.0,0,16585.0,16585.0,16585.0,16585.0,0,0,0,0,0,0
2016-09-14 11:22:00,11:22:12,11:22:47,26931,26951,16580.0,61,16585.0,20,16585.0,16585.0,16580.0,16580.0,12,10,16580,60,16585,8
2016-09-14 11:23:00,11:23:54,11:23:54,26965,26965,16580.0,60,16585.0,25,16580.0,16580.0,16580.0,16580.0,1,-1,16580,57,16585,24
2016-09-14 11:24:00,11:24:06,11:24:34,26973,26983,16580.0,55,16585.0,28,16585.0,16585.0,16585.0,16585.0,10,10,16580,62,16585,10
2016-09-14 11:25:00,11:25:01,11:25:34,26990,27003,16580.0,58,16585.0,36,16580.0,16580.0,16580.0,16580.0,2,-2,16580,54,16585,36
2016-09-14 11:26:00,11:26:09,11:26:48,27007,27025,16580.0,54,16585.0,35,16580.0,16580.0,16580.0,16580.0,10,-10,16580,38,16585,41
2016-09-14 11:27:00,11:27:08,11:27:39,27041,27169,16580.0,32,16585.0,42,16580.0,16580.0,16575.0,16575.0,145,-123,16575,22,16580,38
2016-09-14 11:28:00,11:28:02,11:28:16,27186,27253,16575.0,33,16580.0,49,16575.0,16580.0,16575.0,16580.0,74,16,16575,40,16580,1
2016-09-14 11:29:00,11:29:07,11:29:58,27282,27431,16575.0,37,16580.0,31,16580.0,16580.0,16580.0,16580.0,135,49,16575,26,16580,29
2016-09-14 11:30:00,11:30:00,11:30:57,27436,27765,16575.0,37,16580.0,32,16575.0,16580.0,16565.0,16575.0,361,-109,16570,48,16580,45
2016-09-14 11:31:00,11:31:01,11:31:41,27771,27864,16570.0,47,16575.0,12,16575.0,16580.0,16565.0,16570.0,108,34,16565,49,16570,6
2016-09-14 11:32:00,11:32:01,11:32:51,27883,27945,16565.0,45,16570.0,32,16570.0,16570.0,16560.0,16565.0,11,-1,16560,31,16565,40
2016-09-14 11:33:00,11:33:02,11:33:54,27951,28017,16560.0,31,16565.0,49,16565.0,16565.0,16560.0,16560.0,14,-10,16560,30,16565,52
2016-09-14 11:34:00,11:34:06,11:34:43,28035,28165,16560.0,45,16565.0,19,16565.0,16575.0,16565.0,16570.0,129,47,16565,75,16570,14
2016-09-14 11:35:00,11:35:03,11:35:33,28181,28220,16565.0,73,16570.0,41,16565.0,16565.0,16565.0,16565.0,71,-65,16560,36,16565,29
2016-09-14 11:36:00,11:36:01,11:36:39,28235,28486,16560.0,33,16565.0,42,16560.0,16560.0,16550.0,16550.0,324,-191,16545,55,16550,5
2016-09-14 11:37:00,11:37:21,11:37:59,28525,28652,16545.0,50,16550.0,50,16550.0,16550.0,16540.0,16540.0,148,-26,16535,59,16540,9
2016-09-14 11:38:00,11:38:52,11:38:52,28701,28701,16535.0,49,16540.0,71,16540.0,16540.0,16540.0,16540.0,1,1,16535,42,16540,73
2016-09-14 11:39:00,11:39:21,11:39:58,28716,28861,16535.0,55,16540.0,71,16540.0,16545.0,16540.0,16540.0,187,17,16540,9,16545,42
2016-09-14 11:40:00,11:40:02,11:40:58,28868,28988,16540.0,41,16545.0,38,16545.0,16550.0,16545.0,16550.0,135,115,16545,34,16550,50
2016-09-14 11:41:00,11:41:02,11:41:35,28990,29019,16545.0,29,16550.0,50,16550.0,16550.0,16550.0,16550.0,30,30,16545,45,16550,20
2016-09-14 11:42:00,11:42:03,11:42:56,29047,29187,16545.0,47,16550.0,39,16545.0,16555.0,16545.0,16550.0,163,-3,16545,59,16550,33
2016-09-14 11:43:00,11:43:02,11:43:59,29195,29336,16545.0,47,16550.0,44,16550.0,16550.0,16545.0,16545.0,124,-87,16540,46,16545,38
2016-09-14 11:44:00,11:44:08,11:44:38,29345,29423,16540.0,45,16545.0,45,16545.0,16545.0,16540.0,16540.0,84,4,16540,9,16545,61
2016-09-14 11:45:00,11:45:03,11:45:59,29436,29668,16540.0,55,16545.0,30,16545.0,16550.0,16545.0,16550.0,290,-54,16545,44,16550,23
2016-09-14 11:46:00,11:46:05,11:46:56,29674,29782,16545.0,44,16550.0,15,16550.0,16555.0,16550.0,16555.0,163,11,16555,2,16560,80
2016-09-14 11:47:00,11:47:04,11:47:56,29794,29880,16555.0,2,16560.0,87,16555.0,16555.0,16550.0,16550.0,55,21,16550,37,16555,44
2016-09-14 11:48:00,11:48:10,11:48:25,29894,29919,16550.0,57,16555.0,12,16555.0,16555.0,16555.0,16555.0,10,4,16550,51,16555,19
2016-09-14 11:49:00,11:49:15,11:49:59,29950,30025,16550.0,55,16555.0,23,16555.0,16555.0,16555.0,16555.0,30,14,16550,52,16555,5
2016-09-14 11:50:00,11:50:02,11:50:41,30029,30162,16550.0,52,16555.0,7,16555.0,16560.0,16555.0,16560.0,149,133,16555,67,16565,55
2016-09-14 11:51:00,11:51:30,11:51:34,30216,30239,16555.0,26,16560.0,90,16555.0,16555.0,16555.0,16555.0,37,-19,16555,45,16560,83
2016-09-14 11:52:00,11:52:32,11:52:53,30269,30290,16555.0,106,16560.0,82,16560.0,16560.0,16555.0,16555.0,8,-6,16555,50,16560,83
2016-09-14 11:53:00,11:53:51,11:53:51,30329,30365,16555.0,88,16560.0,74,16560.0,16560.0,16560.0,16560.0,112,106,16555,94,16560,14
2016-09-14 11:54:00,11:54:03,11:54:54,30377,30599,16555.0,99,16560.0,28,16560.0,16560.0,16550.0,16550.0,350,-53,16545,45,16550,12
2016-09-14 11:55:00,11:55:02,11:55:44,30605,30695,16545.0,48,16550.0,5,16550.0,16550.0,16550.0,16550.0,67,-17,16545,48,16555,65
2016-09-14 11:56:00,11:56:09,11:56:55,30710,30776,16545.0,49,16550.0,7,16550.0,16550.0,16545.0,16545.0,55,27,16540,69,16545,9
2016-09-14 11:57:00,11:57:15,11:57:59,30811,30912,16540.0,60,16545.0,31,16545.0,16550.0,16545.0,16545.0,100,6,16540,53,16545,10
2016-09-14 11:58:00,11:58:44,11:58:44,30942,30950,16540.0,12,16545.0,45,16540.0,16540.0,16540.0,16540.0,12,-12,16540,8,16545,46
2016-09-14 11:59:00,11:59:00,11:59:50,30959,31097,16540.0,21,16545.0,45,16540.0,16540.0,16530.0,16530.0,167,-130,16530,30,16535,45
2016-09-14 12:00:00,12:00:04,12:00:56,31115,31285,16530.0,38,16535.0,48,16535.0,16535.0,16525.0,16525.0,184,-164,16525,12,16530,138
2016-09-14 12:01:00,12:01:00,12:01:58,31291,31425,16525.0,10,16530.0,134,16525.0,16535.0,16525.0,16535.0,205,155,16530,91,16535,45
2016-09-14 12:02:00,12:02:16,12:02:39,31432,31475,16530.0,91,16535.0,41,16535.0,16535.0,16535.0,16535.0,71,71,16535,5,16540,67
2016-09-14 12:03:00,12:03:50,12:03:55,31532,31563,16535.0,48,16540.0,52,16535.0,16535.0,16530.0,16530.0,42,-22,16530,90,16535,23
2016-09-14 12:04:00,12:04:01,12:04:57,31566,31689,16530.0,90,16535.0,23,16535.0,16535.0,16535.0,16535.0,102,86,16530,89,16535,3
2016-09-14 12:05:00,12:05:21,12:05:56,31703,31763,16530.0,90,16535.0,19,16535.0,16540.0,16535.0,16535.0,71,-23,16530,98,16535,16
2016-09-14 12:06:00,12:06:02,12:06:44,31771,31825,16530.0,92,16535.0,13,16535.0,16535.0,16530.0,16530.0,27,17,16530,85,16535,44
2016-09-14 12:07:00,12:07:35,12:07:38,31852,31856,16530.0,88,16535.0,15,16535.0,16535.0,16535.0,16535.0,15,15,16535,50,16540,55
2016-09-14 12:08:00,12:08:04,12:08:38,31873,31911,16535.0,35,16540.0,69,16535.0,16535.0,16535.0,16535.0,36,-4,16535,58,16540,57
2016-09-14 12:09:00,12:09:00,12:09:00,0,0,0.0,0,0.0,0,16535.0,16535.0,16535.0,16535.0,0,0,0,0,0,0
2016-09-14 12:10:00,12:10:00,12:10:52,31944,32035,16535.0,28,16540.0,74,16535.0,16540.0,16535.0,16540.0,84,-2,16535,70,16540,47
2016-09-14 12:11:00,12:11:02,12:11:38,32049,32122,16535.0,57,16540.0,70,16540.0,16540.0,16535.0,16535.0,149,-121,16535,37,16540,74
2016-09-14 12:12:00,12:12:01,12:12:27,32134,32175,16535.0,52,16540.0,72,16540.0,16540.0,16540.0,16540.0,53,53,16535,62,16540,44
2016-09-14 12:13:00,12:13:54,12:13:55,32210,32244,16535.0,81,16540.0,44,16540.0,16540.0,16540.0,16540.0,62,62,16535,82,16540,5
2016-09-14 12:14:00,12:14:51,12:14:59,32269,32306,16535.0,68,16540.0,65,16535.0,16540.0,16535.0,16535.0,68,-38,16530,110,16535,10
2016-09-14 12:15:00,12:15:00,12:15:25,32309,32362,16530.0,110,16535.0,10,16535.0,16535.0,16535.0,16535.0,43,43,16530,106,16540,84
2016-09-14 12:16:00,12:16:28,12:16:55,32395,32432,16530.0,100,16535.0,48,16535.0,16535.0,16535.0,16535.0,66,66,16530,108,16535,3
2016-09-14 12:17:00,12:17:04,12:17:35,32438,32478,16530.0,108,16535.0,6,16535.0,16535.0,16535.0,16535.0,67,67,16535,5,16540,81
2016-09-14 12:18:00,12:18:00,12:18:00,0,0,0.0,0,0.0,0,16535.0,16535.0,16535.0,16535.0,0,0,0,0,0,0
2016-09-14 12:19:00,12:19:20,12:19:39,32515,32527,16535.0,40,16540.0,74,16540.0,16540.0,16535.0,16535.0,2,0,16535,50,16540,70
2016-09-14 12:20:00,12:20:35,12:20:48,32557,32617,16535.0,26,16540.0,81,16535.0,16535.0,16535.0,16535.0,56,-38,16530,96,16535,33
2016-09-14 12:21:00,12:21:00,12:21:29,32625,32713,16530.0,99,16535.0,31,16535.0,16535.0,16530.0,16530.0,160,-18,16525,65,16530,2
2016-09-14 12:22:00,12:22:06,12:22:47,32746,32858,16525.0,65,16530.0,20,16530.0,16530.0,16530.0,16530.0,124,98,16525,69,16530,8
2016-09-14 12:23:00,12:23:42,12:23:42,32891,32905,16525.0,68,16530.0,39,16530.0,16530.0,16530.0,16530.0,28,28,16525,70,16530,22
2016-09-14 12:24:00,12:24:00,12:24:40,32913,32988,16525.0,70,16530.0,24,16530.0,16530.0,16530.0,16530.0,78,2,16525,61,16530,4
2016-09-14 12:25:00,12:25:00,12:25:00,0,0,0.0,0,0.0,0,16530.0,16530.0,16530.0,16530.0,0,0,0,0,0,0
2016-09-14 12:26:00,12:26:03,12:26:16,33036,33075,16525.0,50,16530.0,42,16525.0,16525.0,16520.0,16520.0,51,-51,16520,59,16525,15
2016-09-14 12:27:00,12:27:13,12:27:48,33113,33188,16520.0,34,16525.0,43,16525.0,16525.0,16520.0,16525.0,62,56,16520,44,16525,18
2016-09-14 12:28:00,12:28:06,12:28:56,33202,33223,16520.0,57,16525.0,4,16525.0,16525.0,16525.0,16525.0,3,3,16520,53,16525,12
2016-09-14 12:29:00,12:29:06,12:29:42,33227,33262,16520.0,52,16525.0,12,16525.0,16525.0,16520.0,16520.0,5,3,16520,53,16525,14
2016-09-14 12:30:00,12:30:03,12:30:41,33267,33436,16520.0,57,16525.0,15,16525.0,16530.0,16525.0,16530.0,198,66,16530,4,16535,58
2016-09-14 12:31:00,12:31:02,12:31:57,33458,33509,16530.0,62,16535.0,63,16535.0,16535.0,16530.0,16530.0,9,-3,16530,51,16535,74
2016-09-14 12:32:00,12:32:02,12:32:45,33513,33691,16530.0,51,16535.0,75,16535.0,16535.0,16530.0,16530.0,223,30,16525,53,16530,2
2016-09-14 12:33:00,12:33:01,12:33:16,33701,33741,16525.0,49,16530.0,23,16530.0,16530.0,16530.0,16530.0,49,19,16525,43,16530,2
2016-09-14 12:34:00,12:34:01,12:34:58,33762,33870,16525.0,53,16530.0,18,16530.0,16530.0,16530.0,16530.0,111,87,16530,1,16535,78
2016-09-14 12:35:00,12:35:00,12:35:00,33871,33871,16525.0,60,16535.0,74,16530.0,16530.0,16530.0,16530.0,1,0,16530,1,16535,78
2016-09-14 12:36:00,12:36:17,12:36:24,33911,33920,16530.0,31,16535.0,70,16530.0,16535.0,16530.0,16535.0,14,10,16530,43,16535,49
2016-09-14 12:37:00,12:37:25,12:37:25,33949,33949,16530.0,28,16535.0,67,16530.0,16530.0,16530.0,16530.0,1,-1,16530,26,16535,66
2016-09-14 12:38:00,12:38:21,12:38:51,33975,34049,16530.0,52,16535.0,49,16535.0,16535.0,16535.0,16535.0,87,11,16530,33,16535,73
2016-09-14 12:39:00,12:39:00,12:39:53,34058,34109,16530.0,39,16535.0,66,16535.0,16535.0,16530.0,16535.0,56,8,16535,3,16540,85
2016-09-14 12:40:00,12:40:00,12:40:00,0,0,0.0,0,0.0,0,16535.0,16535.0,16535.0,16535.0,0,0,0,0,0,0
2016-09-14 12:41:00,12:41:09,12:41:50,34123,34313,16535.0,27,16540.0,82,16540.0,16540.0,16540.0,16540.0,299,109,16540,2,16545,57
2016-09-14 12:42:00,12:42:09,12:42:58,34326,34369,16540.0,6,16545.0,59,16540.0,16540.0,16540.0,16540.0,29,-17,16540,13,16545,57
2016-09-14 12:43:00,12:43:28,12:43:59,34392,34528,16540.0,18,16545.0,53,16540.0,16540.0,16540.0,16540.0,217,125,16535,62,16545,67
2016-09-14 12:44:00,12:44:38,12:44:38,34551,34551,16535.0,41,16540.0,53,16540.0,16540.0,16540.0,16540.0,1,1,16535,44,16540,52
2016-09-14 12:45:00,12:45:04,12:45:24,34560,34617,16535.0,38,16540.0,55,16535.0,16535.0,16530.0,16530.0,65,-65,16525,56,16530,7
2016-09-14 12:46:00,12:46:18,12:46:27,34662,34706,16525.0,24,16530.0,52,16525.0,16525.0,16525.0,16525.0,37,-25,16520,50,16525,4
2016-09-14 12:47:00,12:47:09,12:47:59,34723,34779,16520.0,55,16525.0,5,16525.0,16530.0,16525.0,16530.0,38,32,16525,51,16530,4
2016-09-14 12:48:00,12:48:00,12:48:45,34784,34838,16525.0,56,16535.0,61,16530.0,16535.0,16530.0,16535.0,47,34,16535,15,16540,48
2016-09-14 12:49:00,12:49:10,12:49:51,34868,34988,16535.0,51,16540.0,28,16540.0,16545.0,16540.0,16545.0,119,-7,16540,50,16545,8
2016-09-14 12:50:00,12:50:03,12:50:46,35002,35079,16540.0,54,16545.0,15,16545.0,16555.0,16545.0,16555.0,65,65,16550,50,16555,46
2016-09-14 12:51:00,12:51:17,12:51:34,35109,35218,16550.0,50,16555.0,64,16550.0,16555.0,16550.0,16550.0,137,-97,16545,59,16550,24
2016-09-14 12:52:00,12:52:43,12:52:52,35253,35270,16545.0,54,16550.0,40,16550.0,16550.0,16545.0,16545.0,25,-23,16540,59,16545,13
2016-09-14 12:53:00,12:53:05,12:53:10,35279,35317,16540.0,56,16545.0,23,16540.0,16545.0,16540.0,16545.0,101,99,16545,14,16550,51
2016-09-14 12:54:00,12:54:42,12:54:50,35377,35401,16545.0,22,16550.0,52,16545.0,16545.0,16545.0,16545.0,20,-18,16540,54,16545,27
2016-09-14 12:55:00,12:55:02,12:55:30,35406,35448,16540.0,57,16545.0,26,16545.0,16545.0,16545.0,16545.0,16,10,16545,36,16550,33
2016-09-14 12:56:00,12:56:20,12:56:20,35477,35477,16545.0,42,16550.0,45,16545.0,16545.0,16545.0,16545.0,1,-1,16545,41,16550,44
2016-09-14 12:57:00,12:57:02,12:57:54,35504,35565,16545.0,43,16550.0,67,16550.0,16550.0,16545.0,16545.0,52,-48,16545,13,16550,56
2016-09-14 12:58:00,12:58:33,12:58:52,35581,35591,16545.0,27,16550.0,50,16550.0,16550.0,16545.0,16550.0,4,2,16545,25,16550,50
2016-09-14 12:59:00,12:59:24,12:59:38,35607,35722,16545.0,28,16550.0,55,16545.0,16545.0,16535.0,16535.0,158,-145,16530,57,16535,24
2016-09-14 13:00:00,13:00:00,13:00:57,35742,35867,16530.0,49,16535.0,30,16530.0,16535.0,16530.0,16535.0,130,-41,16530,64,16540,60
2016-09-14 13:01:00,13:01:00,13:01:56,35870,35937,16530.0,64,16540.0,60,16535.0,16535.0,16535.0,16535.0,73,-6,16530,67,16540,55
2016-09-14 13:02:00,13:02:45,13:02:45,35968,35968,16535.0,60,16540.0,51,16535.0,16535.0,16535.0,16535.0,1,-1,16535,59,16540,53
2016-09-14 13:03:00,13:03:03,13:03:37,35976,36003,16535.0,55,16540.0,52,16535.0,16540.0,16535.0,16540.0,11,9,16535,55,16540,43
2016-09-14 13:04:00,13:04:01,13:04:54,36021,36110,16535.0,44,16540.0,77,16535.0,16535.0,16530.0,16535.0,122,0,16535,10,16540,61
2016-09-14 13:05:00,13:05:20,13:05:54,36115,36164,16535.0,23,16540.0,61,16535.0,16535.0,16535.0,16535.0,41,-25,16530,44,16535,16
2016-09-14 13:06:00,13:06:06,13:06:31,36175,36260,16530.0,41,16535.0,23,16530.0,16530.0,16525.0,16525.0,107,-51,16525,25,16530,66
2016-09-14 13:07:00,13:07:33,13:07:33,36298,36298,16525.0,51,16530.0,47,16525.0,16525.0,16525.0,16525.0,1,-1,16525,50,16530,49
2016-09-14 13:08:00,13:08:02,13:08:51,36316,36410,16525.0,52,16530.0,29,16530.0,16535.0,16530.0,16530.0,117,-21,16525,42,16530,16
2016-09-14 13:09:00,13:09:35,13:09:42,36435,36451,16525.0,39,16530.0,29,16530.0,16535.0,16530.0,16535.0,26,26,16530,24,16535,52
2016-09-14 13:10:00,13:10:15,13:10:52,36462,36538,16530.0,38,16535.0,47,16535.0,16535.0,16535.0,16535.0,102,102,16530,54,16535,8
2016-09-14 13:11:00,13:11:11,13:11:25,36547,36582,16530.0,52,16535.0,7,16535.0,16535.0,16530.0,16530.0,36,-26,16530,25,16535,50
2016-09-14 13:12:00,13:12:19,13:12:52,36612,36643,16530.0,48,16535.0,26,16535.0,16535.0,16535.0,16535.0,38,16,16530,48,16535,7
2016-09-14 13:13:00,13:13:40,13:13:59,36680,36734,16530.0,57,16535.0,20,16535.0,16535.0,16535.0,16535.0,51,45,16530,64,16540,59
2016-09-14 13:14:00,13:14:00,13:14:40,36737,36860,16530.0,64,16540.0,59,16535.0,16535.0,16535.0,16535.0,135,74,16530,70,16535,4
2016-09-14 13:15:00,13:15:06,13:15:57,36866,36988,16530.0,70,16535.0,8,16535.0,16540.0,16530.0,16530.0,118,-40,16525,92,16530,5
2016-09-14 13:16:00,13:16:05,13:16:40,36998,37047,16525.0,92,16530.0,45,16530.0,16530.0,16530.0,16530.0,77,77,16525,83,16535,52
2016-09-14 13:17:00,13:17:03,13:17:51,37059,37115,16525.0,96,16530.0,4,16530.0,16530.0,16530.0,16530.0,69,-41,16525,62,16530,12
2016-09-14 13:18:00,13:18:03,13:18:48,37127,37181,16525.0,61,16530.0,19,16530.0,16530.0,16530.0,16530.0,46,8,16530,15,16535,55
2016-09-14 13:19:00,13:19:13,13:19:15,37193,37213,16530.0,14,16535.0,51,16530.0,16530.0,16530.0,16530.0,19,-19,16525,52,16530,26
2016-09-14 13:20:00,13:20:02,13:20:49,37241,37359,16525.0,58,16530.0,17,16530.0,16530.0,16520.0,16525.0,121,-17,16525,54,16530,55
2016-09-14 13:21:00,13:21:04,13:21:54,37370,37408,16525.0,79,16530.0,28,16530.0,16530.0,16525.0,16525.0,6,-4,16525,62,16530,48
2016-09-14 13:22:00,13:22:01,13:22:36,37417,37446,16525.0,58,16530.0,58,16525.0,16530.0,16525.0,16525.0,6,-4,16525,57,16530,49
2016-09-14 13:23:00,13:23:01,13:23:58,37462,37535,16525.0,64,16530.0,44,16525.0,16530.0,16520.0,16520.0,60,-58,16520,33,16525,56
2016-09-14 13:24:00,13:24:07,13:24:55,37542,38016,16520.0,34,16525.0,60,16520.0,16520.0,16495.0,16500.0,662,-242,16500,4,16505,46
2016-09-14 13:25:00,13:25:00,13:25:54,38020,38227,16500.0,6,16505.0,46,16500.0,16510.0,16500.0,16510.0,221,15,16505,31,16510,65
2016-09-14 13:26:00,13:26:19,13:26:56,38255,38398,16505.0,56,16510.0,37,16510.0,16515.0,16510.0,16510.0,210,-25,16505,28,16510,52
2016-09-14 13:27:00,13:27:00,13:27:47,38406,38443,16505.0,47,16510.0,27,16510.0,16510.0,16505.0,16510.0,23,21,16510,28,16515,57
2016-09-14 13:28:00,13:28:06,13:28:59,38460,38549,16510.0,49,16515.0,35,16515.0,16515.0,16510.0,16510.0,90,-48,16505,61,16510,6
2016-09-14 13:29:00,13:29:00,13:29:57,38552,38760,16505.0,61,16510.0,6,16510.0,16510.0,16495.0,16495.0,227,-123,16495,21,16500,14
2016-09-14 13:30:00,13:30:00,13:30:59,38763,39083,16495.0,22,16500.0,46,16500.0,16500.0,16480.0,16485.0,436,-208,16480,168,16485,7
2016-09-14 13:31:00,13:31:04,13:31:49,39090,39247,16480.0,167,16485.0,17,16485.0,16490.0,16485.0,16490.0,228,82,16490,69,16495,68
2016-09-14 13:32:00,13:32:21,13:32:51,39283,39300,16490.0,64,16495.0,77,16495.0,16495.0,16495.0,16495.0,2,2,16490,60,16495,83
2016-09-14 13:33:00,13:33:12,13:33:33,39320,39362,16490.0,63,16495.0,87,16495.0,16495.0,16490.0,16495.0,73,71,16495,22,16500,62
2016-09-14 13:34:00,13:34:03,13:34:40,39392,39499,16495.0,74,16500.0,50,16500.0,16500.0,16500.0,16500.0,90,90,16495,48,16500,23
2016-09-14 13:35:00,13:35:01,13:35:54,39517,39634,16495.0,46,16500.0,17,16500.0,16500.0,16500.0,16500.0,115,101,16495,61,16500,8
2016-09-14 13:36:00,13:36:03,13:36:45,39645,39783,16495.0,58,16500.0,25,16500.0,16500.0,16495.0,16495.0,180,16,16495,49,16500,56
2016-09-14 13:37:00,13:37:04,13:37:52,39798,39921,16495.0,86,16500.0,61,16500.0,16500.0,16500.0,16500.0,132,128,16495,101,16500,4
2016-09-14 13:38:00,13:38:00,13:38:52,39925,40032,16495.0,101,16500.0,7,16500.0,16500.0,16495.0,16500.0,86,15,16495,92,16500,45
2016-09-14 13:39:00,13:39:05,13:39:59,40051,40236,16495.0,97,16500.0,41,16495.0,16500.0,16495.0,16500.0,126,51,16495,89,16500,13
2016-09-14 13:40:00,13:40:03,13:40:59,40248,40527,16495.0,93,16500.0,20,16500.0,16505.0,16475.0,16475.0,425,-383,16470,41,16475,40
2016-09-14 13:41:00,13:41:00,13:41:57,40528,40895,16480.0,35,16485.0,55,16475.0,16480.0,16470.0,16470.0,460,-182,16470,36,16475,65
2016-09-14 13:42:00,13:42:03,13:42:41,40906,41062,16470.0,28,16475.0,77,16470.0,16480.0,16470.0,16480.0,183,21,16475,46,16480,40
2016-09-14 13:43:00,13:43:02,13:43:51,41092,41258,16475.0,55,16480.0,36,16480.0,16485.0,16480.0,16485.0,192,68,16480,46,16485,31
2016-09-14 13:44:00,13:44:11,13:44:59,41282,41513,16480.0,52,16485.0,34,16480.0,16485.0,16465.0,16470.0,336,-212,16470,66,16475,33
2016-09-14 13:45:00,13:45:07,13:45:50,41537,41726,16470.0,60,16475.0,53,16470.0,16475.0,16465.0,16465.0,308,-66,16460,112,16465,34
2016-09-14 13:46:00,13:46:04,13:46:50,41749,41923,16460.0,100,16465.0,45,16465.0,16465.0,16460.0,16465.0,213,21,16460,87,16465,32
2016-09-14 13:47:00,13:47:01,13:47:59,41941,42091,16460.0,76,16465.0,80,16460.0,16470.0,16460.0,16470.0,195,161,16465,49,16470,21
2016-09-14 13:48:00,13:48:01,13:48:49,42096,42390,16465.0,72,16470.0,44,16470.0,16470.0,16460.0,16465.0,483,-163,16465,6,16470,75
2016-09-14 13:49:00,13:49:16,13:49:58,42420,42485,16465.0,50,16470.0,89,16465.0,16470.0,16465.0,16465.0,28,-20,16465,55,16470,76
2016-09-14 13:50:00,13:50:08,13:50:57,42502,42714,16465.0,45,16470.0,79,16465.0,16465.0,16455.0,16455.0,224,-190,16455,25,16460,53
2016-09-14 13:51:00,13:51:00,13:51:56,42724,42851,16455.0,72,16460.0,50,16455.0,16465.0,16455.0,16465.0,125,31,16460,48,16465,66
2016-09-14 13:52:00,13:52:01,13:52:57,42856,43148,16460.0,48,16465.0,66,16460.0,16470.0,16460.0,16470.0,401,199,16465,68,16470,26
2016-09-14 13:53:00,13:53:00,13:53:54,43155,43340,16465.0,62,16470.0,22,16470.0,16470.0,16465.0,16470.0,133,49,16465,61,16470,45
2016-09-14 13:54:00,13:54:03,13:54:58,43353,43450,16465.0,86,16470.0,40,16470.0,16470.0,16465.0,16470.0,47,29,16465,86,16470,22
2016-09-14 13:55:00,13:55:02,13:55:59,43457,43591,16465.0,90,16470.0,29,16470.0,16470.0,16465.0,16465.0,94,36,16465,60,16470,73
2016-09-14 13:56:00,13:56:00,13:56:57,43592,43705,16465.0,62,16470.0,71,16465.0,16475.0,16465.0,16470.0,110,80,16470,48,16475,107
2016-09-14 13:57:00,13:57:09,13:57:55,43724,44020,16470.0,77,16475.0,103,16475.0,16490.0,16475.0,16480.0,454,180,16480,1,16485,109
2016-09-14 13:58:00,13:58:01,13:58:59,44035,44294,16480.0,39,16485.0,109,16480.0,16485.0,16475.0,16485.0,326,95,16485,64,16490,120
2016-09-14 13:59:00,13:59:00,13:59:59,44297,44702,16485.0,64,16490.0,120,16485.0,16490.0,16475.0,16480.0,710,-326,16475,37,16480,231
2016-09-14 14:00:00,14:00:00,14:00:59,44706,45370,16475.0,37,16480.0,236,16475.0,16500.0,16470.0,16500.0,1418,25,16495,46,16500,77
2016-09-14 14:01:00,14:01:03,14:01:58,45383,45672,16495.0,49,16500.0,77,16500.0,16500.0,16485.0,16485.0,483,-131,16485,17,16490,86
2016-09-14 14:02:00,14:02:10,14:02:57,45694,45786,16485.0,77,16490.0,88,16490.0,16490.0,16485.0,16490.0,53,49,16485,101,16490,26
2016-09-14 14:03:00,14:03:04,14:03:59,45798,45940,16485.0,90,16490.0,52,16490.0,16495.0,16490.0,16490.0,186,78,16490,72,16495,50
2016-09-14 14:04:00,14:04:01,14:04:55,45942,45993,16490.0,71,16495.0,50,16495.0,16495.0,16495.0,16495.0,16,16,16490,80,16495,39
2016-09-14 14:05:00,14:05:00,14:05:59,45999,46174,16490.0,80,16495.0,36,16495.0,16495.0,16485.0,16490.0,212,-124,16485,88,16490,61
2016-09-14 14:06:00,14:06:02,14:06:49,46180,46286,16485.0,94,16490.0,71,16485.0,16490.0,16485.0,16485.0,237,-143,16485,3,16490,85
2016-09-14 14:07:00,14:07:02,14:07:57,46306,46466,16485.0,39,16490.0,86,16485.0,16490.0,16485.0,16485.0,232,36,16485,48,16490,54
2016-09-14 14:08:00,14:08:00,14:08:46,46469,46826,16485.0,50,16490.0,56,16485.0,16500.0,16485.0,16490.0,1052,622,16485,112,16490,15
