,ST,ET,sidx,eidx,bB,bBS,bA,bAS,O,H,L,C,V,OF,eB,eBS,eA,eAS
2016-06-27 08:00:00,08:00:00,08:00:59,3599,4343,15115.0,5,15120.0,61,15115.0,15130.0,15100.0,15110.0,985,-94,15105,3,15110,14
2016-06-27 08:01:00,08:01:01,08:01:59,4347,5382,15105.0,2,15110.0,14,15110.0,15165.0,15105.0,15145.0,1291,305,15145,2,15150,104
2016-06-27 08:02:00,08:02:00,08:02:59,5383,6007,15140.0,14,15145.0,1,15150.0,15155.0,15120.0,15120.0,854,-132,15110,8,15115,4
2016-06-27 08:03:00,08:03:00,08:03:58,6008,6798,15130.0,6,15135.0,20,15115.0,15130.0,15110.0,15130.0,1244,-318,15125,99,15130,11
2016-06-27 08:04:00,08:04:02,08:04:57,6806,7225,15125.0,100,15130.0,115,15130.0,15140.0,15120.0,15135.0,569,-145,15135,87,15140,17
2016-06-27 08:05:00,08:05:01,08:05:57,7229,7756,15135.0,90,15140.0,16,15135.0,15150.0,15125.0,15130.0,1008,-304,15130,12,15135,28
2016-06-27 08:06:00,08:06:00,08:06:59,7765,8660,15130.0,14,15135.0,29,15135.0,15160.0,15120.0,15150.0,1105,24,15145,10,15150,26
2016-06-27 08:07:00,08:07:01,08:07:59,8667,9163,15145.0,17,15150.0,25,15145.0,15155.0,15135.0,15145.0,571,-196,15140,18,15150,24
2016-06-27 08:08:00,08:08:00,08:08:59,9164,9601,15145.0,3,15150.0,28,15145.0,15160.0,15140.0,15150.0,500,-24,15150,16,15155,13
2016-06-27 08:09:00,08:09:03,08:09:58,9616,9912,15150.0,16,15155.0,17,15155.0,15155.0,15140.0,15140.0,256,-50,15140,18,15145,28
2016-06-27 08:10:00,08:10:01,08:10:59,9922,10431,15140.0,28,15145.0,20,15145.0,15145.0,15120.0,15135.0,549,-215,15130,24,15135,4
2016-06-27 08:11:00,08:11:00,08:11:59,10435,10847,15130.0,24,15135.0,7,15130.0,15140.0,15125.0,15125.0,454,-101,15125,42,15130,13
2016-06-27 08:12:00,08:12:00,08:12:54,10850,11086,15125.0,42,15130.0,13,15130.0,15135.0,15125.0,15125.0,247,5,15125,32,15130,45
2016-06-27 08:13:00,08:13:00,08:13:59,11097,11557,15125.0,30,15130.0,44,15130.0,15135.0,15110.0,15110.0,489,-165,15110,13,15115,31
2016-06-27 08:14:00,08:14:02,08:14:59,11565,12456,15110.0,12,15115.0,30,15110.0,15110.0,15050.0,15055.0,1208,-552,15055,7,15060,49
2016-06-27 08:15:00,08:15:00,08:15:59,12457,12953,15055.0,11,15060.0,18,15055.0,15060.0,15020.0,15020.0,585,-84,15020,12,15025,15
2016-06-27 08:16:00,08:16:00,08:16:52,12956,13235,15020.0,12,15025.0,15,15025.0,15045.0,15020.0,15045.0,204,122,15040,9,15045,14
2016-06-27 08:17:00,08:17:01,08:17:59,13254,13575,15040.0,20,15045.0,14,15045.0,15050.0,15035.0,15035.0,241,-65,15030,47,15035,17
2016-06-27 08:18:00,08:18:00,08:18:59,13579,13990,15030.0,48,15035.0,17,15035.0,15035.0,15020.0,15025.0,392,-58,15025,19,15030,9
2016-06-27 08:19:00,08:19:00,08:19:58,13995,14586,15025.0,21,15030.0,29,15030.0,15040.0,15015.0,15015.0,578,-26,15015,44,15020,15
2016-06-27 08:20:00,08:20:01,08:20:58,14592,15161,15015.0,44,15020.0,20,15015.0,15020.0,14995.0,15010.0,609,-167,15005,17,15010,13
2016-06-27 08:21:00,08:21:02,08:21:59,15174,15607,15005.0,14,15010.0,13,15005.0,15035.0,15005.0,15035.0,456,-74,15035,34,15040,10
2016-06-27 08:22:00,08:22:00,08:22:56,15612,15897,15035.0,36,15040.0,15,15040.0,15040.0,15035.0,15035.0,426,-232,15035,27,15040,33
2016-06-27 08:23:00,08:23:04,08:23:55,15914,16169,15035.0,29,15040.0,34,15040.0,15065.0,15040.0,15060.0,268,6,15060,10,15065,17
2016-06-27 08:24:00,08:24:01,08:24:59,16184,16641,15060.0,18,15065.0,11,15065.0,15110.0,15065.0,15090.0,440,201,15085,15,15090,15
2016-06-27 08:25:00,08:25:00,08:25:58,16644,17016,15085.0,15,15090.0,15,15085.0,15100.0,15080.0,15080.0,393,68,15080,5,15085,14
2016-06-27 08:26:00,08:26:00,08:26:58,17022,17356,15080.0,16,15085.0,15,15080.0,15095.0,15060.0,15065.0,248,-78,15060,20,15070,28
2016-06-27 08:27:00,08:27:14,08:27:58,17394,17582,15060.0,18,15065.0,9,15065.0,15085.0,15065.0,15075.0,103,11,15070,14,15075,47
2016-06-27 08:28:00,08:28:03,08:28:58,17594,17879,15070.0,6,15075.0,51,15070.0,15080.0,15055.0,15060.0,251,-16,15060,19,15065,12
2016-06-27 08:29:00,08:29:00,08:29:51,17882,18189,15060.0,20,15065.0,28,15065.0,15070.0,15060.0,15065.0,348,132,15065,48,15075,37
2016-06-27 08:30:00,08:30:02,08:30:59,18212,18666,15070.0,15,15075.0,37,15075.0,15075.0,15050.0,15050.0,489,11,15045,40,15050,2
2016-06-27 08:31:00,08:31:00,08:31:58,18667,18960,15045.0,37,15050.0,12,15050.0,15065.0,15040.0,15060.0,269,55,15060,15,15065,41
2016-06-27 08:32:00,08:32:00,08:32:59,18964,19325,15060.0,16,15065.0,41,15060.0,15080.0,15060.0,15080.0,357,53,15075,28,15080,9
2016-06-27 08:33:00,08:33:00,08:33:59,19330,19558,15075.0,24,15080.0,18,15080.0,15085.0,15070.0,15085.0,166,27,15085,8,15090,24
2016-06-27 08:34:00,08:34:00,08:34:59,19561,19950,15085.0,8,15090.0,24,15085.0,15110.0,15085.0,15105.0,374,133,15100,24,15105,2
2016-06-27 08:35:00,08:35:04,08:35:59,19960,20286,15100.0,21,15105.0,27,15105.0,15125.0,15100.0,15120.0,305,151,15115,20,15125,51
2016-06-27 08:36:00,08:36:00,08:36:54,20293,20763,15115.0,15,15120.0,6,15120.0,15120.0,15090.0,15115.0,469,48,15115,8,15120,21
2016-06-27 08:37:00,08:37:00,08:37:57,20768,21139,15115.0,17,15120.0,21,15115.0,15120.0,15110.0,15115.0,519,150,15115,46,15120,48
2016-06-27 08:38:00,08:38:08,08:38:58,21151,21358,15115.0,26,15120.0,49,15120.0,15135.0,15115.0,15125.0,294,64,15120,38,15125,23
2016-06-27 08:39:00,08:39:04,08:39:59,21366,21550,15120.0,34,15125.0,23,15125.0,15135.0,15125.0,15125.0,160,105,15120,2,15125,22
2016-06-27 08:40:00,08:40:00,08:40:54,21552,21670,15120.0,32,15125.0,22,15120.0,15125.0,15120.0,15125.0,73,13,15120,36,15130,30
2016-06-27 08:41:00,08:41:00,08:41:59,21675,21893,15120.0,36,15125.0,11,15125.0,15125.0,15120.0,15125.0,145,31,15120,68,15125,1
2016-06-27 08:42:00,08:42:00,08:42:59,21896,22144,15125.0,8,15130.0,28,15125.0,15140.0,15125.0,15135.0,191,97,15135,7,15140,21
2016-06-27 08:43:00,08:43:00,08:43:55,22150,22404,15135.0,9,15140.0,22,15135.0,15135.0,15120.0,15125.0,178,-64,15120,57,15125,2
2016-06-27 08:44:00,08:44:03,08:44:59,22419,22679,15120.0,56,15125.0,19,15120.0,15125.0,15110.0,15125.0,229,-17,15120,38,15125,7
2016-06-27 08:45:00,08:45:07,08:45:58,22696,22878,15120.0,31,15125.0,15,15120.0,15125.0,15120.0,15120.0,116,-76,15120,18,15125,24
2016-06-27 08:46:00,08:46:01,08:46:59,22891,23223,15120.0,7,15125.0,30,15120.0,15125.0,15095.0,15095.0,312,-127,15095,18,15100,17
2016-06-27 08:47:00,08:47:00,08:47:58,23228,23488,15095.0,19,15100.0,15,15095.0,15100.0,15085.0,15100.0,144,56,15100,10,15105,26
2016-06-27 08:48:00,08:48:00,08:48:52,23494,23714,15100.0,15,15105.0,14,15100.0,15100.0,15095.0,15100.0,168,-3,15100,12,15105,23
2016-06-27 08:49:00,08:49:30,08:49:50,23783,23893,15100.0,26,15105.0,14,15105.0,15105.0,15095.0,15100.0,99,-29,15100,8,15105,21
2016-06-27 08:50:00,08:50:00,08:50:57,23915,24074,15100.0,10,15105.0,23,15100.0,15110.0,15100.0,15110.0,111,79,15105,30,15110,9
2016-06-27 08:51:00,08:51:02,08:51:59,24080,24393,15105.0,31,15110.0,5,15110.0,15115.0,15100.0,15105.0,274,-62,15100,20,15105,7
2016-06-27 08:52:00,08:52:02,08:52:59,24398,24733,15100.0,18,15105.0,14,15100.0,15120.0,15100.0,15115.0,336,-22,15110,20,15115,27
2016-06-27 08:53:00,08:53:00,08:53:59,24736,25174,15110.0,20,15115.0,27,15110.0,15130.0,15110.0,15125.0,691,269,15120,36,15130,26
2016-06-27 08:54:00,08:54:01,08:54:59,25182,25598,15125.0,2,15130.0,26,15130.0,15145.0,15115.0,15120.0,328,49,15115,24,15120,15
2016-06-27 08:55:00,08:55:01,08:55:58,25605,25927,15115.0,20,15120.0,22,15120.0,15135.0,15115.0,15120.0,266,-43,15115,25,15125,24
2016-06-27 08:56:00,08:56:07,08:56:51,25937,26084,15120.0,27,15125.0,12,15125.0,15140.0,15125.0,15135.0,80,68,15135,17,15140,19
2016-06-27 08:57:00,08:57:00,08:57:58,26100,26495,15135.0,6,15140.0,24,15135.0,15140.0,15115.0,15135.0,413,-16,15135,10,15140,26
2016-06-27 08:58:00,08:58:00,08:58:56,26500,26728,15135.0,10,15140.0,31,15140.0,15145.0,15135.0,15135.0,229,118,15135,12,15140,19
2016-06-27 08:59:00,08:59:01,08:59:57,26736,26967,15135.0,18,15140.0,12,15140.0,15140.0,15130.0,15130.0,179,-27,15125,22,15130,6
2016-06-27 09:00:00,09:00:00,09:00:58,26972,27301,15125.0,26,15130.0,5,15130.0,15150.0,15130.0,15130.0,294,74,15130,15,15135,44
2016-06-27 09:01:00,09:01:01,09:01:59,27308,27659,15130.0,20,15135.0,43,15130.0,15150.0,15130.0,15150.0,398,-95,15150,10,15155,30
2016-06-27 09:02:00,09:02:03,09:02:58,27670,27932,15150.0,26,15155.0,24,15155.0,15160.0,15150.0,15155.0,261,139,15150,32,15155,18
2016-06-27 09:03:00,09:03:08,09:03:59,27948,28212,15150.0,28,15155.0,20,15155.0,15180.0,15155.0,15180.0,225,119,15180,6,15185,37
2016-06-27 09:04:00,09:04:04,09:04:47,28231,28560,15180.0,34,15185.0,17,15180.0,15180.0,15160.0,15175.0,315,-195,15175,7,15180,26
2016-06-27 09:05:00,09:05:04,09:05:58,28584,28889,15175.0,7,15180.0,27,15175.0,15185.0,15170.0,15180.0,294,13,15180,3,15185,22
2016-06-27 09:06:00,09:06:04,09:06:57,28898,29114,15180.0,5,15185.0,24,15180.0,15185.0,15165.0,15165.0,163,-53,15165,6,15170,25
2016-06-27 09:07:00,09:07:00,09:07:52,29124,29395,15165.0,25,15170.0,20,15170.0,15175.0,15155.0,15160.0,253,-45,15155,26,15165,25
2016-06-27 09:08:00,09:08:01,09:08:55,29408,29620,15160.0,19,15165.0,20,15165.0,15165.0,15150.0,15155.0,166,-21,15155,29,15160,30
2016-06-27 09:09:00,09:09:00,09:09:53,29627,29881,15155.0,31,15160.0,26,15155.0,15160.0,15150.0,15160.0,299,107,15160,18,15165,25
2016-06-27 09:10:00,09:10:03,09:10:57,29897,30022,15160.0,18,15165.0,45,15160.0,15165.0,15160.0,15165.0,81,-47,15160,16,15165,29
2016-06-27 09:11:00,09:11:09,09:11:52,30044,30158,15160.0,22,15165.0,28,15160.0,15165.0,15160.0,15160.0,84,-10,15160,12,15165,20
2016-06-27 09:12:00,09:12:02,09:12:53,30176,30268,15160.0,11,15165.0,25,15160.0,15170.0,15160.0,15170.0,35,-1,15165,20,15170,25
2016-06-27 09:13:00,09:13:01,09:13:59,30280,30463,15165.0,16,15170.0,31,15165.0,15165.0,15160.0,15160.0,132,42,15160,22,15165,16
2016-06-27 09:14:00,09:14:00,09:14:58,30466,30583,15160.0,22,15165.0,16,15160.0,15170.0,15150.0,15170.0,77,1,15170,6,15175,14
2016-06-27 09:15:00,09:15:00,09:15:48,30588,30782,15170.0,20,15175.0,5,15175.0,15180.0,15160.0,15165.0,153,-45,15160,12,15165,15
2016-06-27 09:16:00,09:16:06,09:16:55,30802,31097,15160.0,14,15165.0,17,15165.0,15165.0,15140.0,15155.0,327,-77,15150,30,15155,8
2016-06-27 09:17:00,09:17:00,09:17:59,31110,31646,15150.0,27,15155.0,24,15150.0,15155.0,15135.0,15140.0,620,-54,15140,5,15145,24
2016-06-27 09:18:00,09:18:02,09:18:50,31655,31939,15140.0,15,15145.0,14,15140.0,15145.0,15125.0,15130.0,262,-131,15130,12,15135,23
2016-06-27 09:19:00,09:19:01,09:19:59,31956,32360,15130.0,10,15135.0,25,15130.0,15160.0,15130.0,15135.0,554,222,15130,24,15135,10
2016-06-27 09:20:00,09:20:00,09:20:55,32367,32714,15130.0,19,15135.0,20,15135.0,15135.0,15100.0,15105.0,331,-47,15100,11,15105,15
2016-06-27 09:21:00,09:21:06,09:21:57,32735,32976,15100.0,12,15105.0,25,15105.0,15135.0,15105.0,15130.0,192,-6,15125,26,15130,3
2016-06-27 09:22:00,09:22:00,09:22:57,32990,33319,15125.0,21,15130.0,32,15125.0,15150.0,15125.0,15145.0,313,-49,15140,14,15145,14
2016-06-27 09:23:00,09:23:00,09:23:57,33327,33606,15140.0,24,15145.0,11,15145.0,15145.0,15135.0,15140.0,211,-46,15135,31,15140,14
2016-06-27 09:24:00,09:24:00,09:24:58,33617,33918,15135.0,29,15140.0,16,15140.0,15150.0,15120.0,15140.0,266,-66,15135,29,15145,38
2016-06-27 09:25:00,09:25:00,09:25:54,33925,34146,15135.0,26,15140.0,3,15140.0,15140.0,15120.0,15120.0,235,-202,15115,26,15125,19
2016-06-27 09:26:00,09:26:02,09:26:55,34157,34435,15120.0,23,15125.0,19,15125.0,15145.0,15120.0,15145.0,225,173,15140,29,15150,40
2016-06-27 09:27:00,09:27:05,09:27:59,34446,34761,15140.0,23,15145.0,17,15145.0,15165.0,15145.0,15160.0,301,191,15155,25,15160,9
2016-06-27 09:28:00,09:28:00,09:28:59,34766,35011,15155.0,26,15160.0,13,15160.0,15170.0,15160.0,15165.0,201,112,15160,26,15165,16
2016-06-27 09:29:00,09:29:00,09:29:52,35017,35259,15160.0,27,15165.0,15,15160.0,15180.0,15155.0,15175.0,201,73,15170,30,15175,21
2016-06-27 09:30:00,09:30:01,09:30:58,35269,35626,15170.0,34,15175.0,24,15175.0,15180.0,15175.0,15180.0,336,106,15175,27,15185,25
2016-06-27 09:31:00,09:31:00,09:31:59,35631,36050,15175.0,31,15185.0,34,15180.0,15185.0,15140.0,15155.0,434,-100,15155,27,15160,21
2016-06-27 09:32:00,09:32:00,09:32:57,36052,36438,15155.0,27,15160.0,24,15160.0,15170.0,15145.0,15145.0,323,-59,15140,33,15150,25
2016-06-27 09:33:00,09:33:00,09:33:59,36443,36815,15140.0,33,15145.0,5,15145.0,15155.0,15135.0,15135.0,356,-38,15130,29,15135,9
2016-06-27 09:34:00,09:34:00,09:34:53,36819,37246,15130.0,29,15135.0,8,15135.0,15135.0,15120.0,15135.0,429,-43,15130,20,15135,13
2016-06-27 09:35:00,09:35:00,09:35:59,37257,37744,15130.0,22,15135.0,17,15130.0,15130.0,15100.0,15100.0,439,-158,15100,13,15105,24
2016-06-27 09:36:00,09:36:02,09:36:58,37750,38173,15100.0,10,15105.0,24,15100.0,15130.0,15095.0,15105.0,400,-7,15100,22,15105,12
2016-06-27 09:37:00,09:37:00,09:37:59,38184,38632,15100.0,25,15105.0,10,15100.0,15130.0,15100.0,15115.0,456,77,15115,3,15115,12
2016-06-27 09:38:00,09:38:00,09:38:59,38634,39030,15115.0,3,15120.0,22,15115.0,15125.0,15105.0,15125.0,371,38,15120,20,15130,47
2016-06-27 09:39:00,09:39:03,09:39:58,39041,39250,15120.0,9,15125.0,16,15125.0,15125.0,15115.0,15125.0,144,35,15125,1,15125,6
2016-06-27 09:40:00,09:40:00,09:40:58,39253,39566,15120.0,26,15125.0,4,15125.0,15130.0,15115.0,15115.0,259,15,15110,20,15115,8
2016-06-27 09:41:00,09:41:00,09:41:47,39574,39830,15110.0,14,15115.0,23,15110.0,15140.0,15110.0,15125.0,180,52,15125,6,15130,34
2016-06-27 09:42:00,09:42:04,09:42:56,39857,40066,15125.0,13,15130.0,28,15130.0,15135.0,15130.0,15135.0,87,6,15135,8,15140,29
2016-06-27 09:43:00,09:43:00,09:43:58,40072,40326,15135.0,24,15140.0,7,15140.0,15140.0,15120.0,15130.0,185,16,15125,30,15130,15
2016-06-27 09:44:00,09:44:08,09:44:58,40348,40642,15125.0,17,15130.0,23,15125.0,15125.0,15105.0,15115.0,268,-108,15110,23,15115,10
2016-06-27 09:45:00,09:45:11,09:45:45,40665,40807,15110.0,11,15115.0,22,15110.0,15110.0,15100.0,15105.0,107,-58,15105,12,15110,21
2016-06-27 09:46:00,09:46:01,09:46:57,40844,41132,15105.0,25,15110.0,10,15110.0,15110.0,15085.0,15085.0,231,-45,15080,15,15085,4
2016-06-27 09:47:00,09:47:01,09:47:58,41142,41393,15080.0,24,15085.0,5,15080.0,15095.0,15080.0,15085.0,142,-11,15080,25,15085,9
2016-06-27 09:48:00,09:48:00,09:48:56,41400,41578,15080.0,26,15085.0,5,15085.0,15100.0,15085.0,15090.0,113,40,15090,17,15095,19
2016-06-27 09:49:00,09:49:03,09:49:59,41588,41825,15090.0,24,15095.0,15,15095.0,15125.0,15095.0,15125.0,184,134,15120,19,15125,12
2016-06-27 09:50:00,09:50:03,09:50:54,41834,42087,15120.0,14,15125.0,16,15120.0,15125.0,15110.0,15115.0,204,-46,15110,25,15115,11
2016-06-27 09:51:00,09:51:05,09:51:59,42110,42309,15110.0,21,15115.0,9,15115.0,15130.0,15115.0,15130.0,122,54,15125,18,15130,11
2016-06-27 09:52:00,09:52:00,09:52:58,42313,42532,15125.0,22,15130.0,11,15130.0,15135.0,15125.0,15135.0,148,73,15130,20,15135,10
2016-06-27 09:53:00,09:53:13,09:53:53,42568,42780,15130.0,12,15135.0,25,15130.0,15135.0,15120.0,15125.0,179,-66,15125,4,15130,37
2016-06-27 09:54:00,09:54:02,09:54:57,42798,42943,15125.0,4,15130.0,38,15125.0,15125.0,15120.0,15125.0,60,12,15125,16,15130,30
2016-06-27 09:55:00,09:55:04,09:55:58,42957,43227,15125.0,14,15130.0,30,15125.0,15145.0,15125.0,15140.0,249,127,15135,25,15140,3
2016-06-27 09:56:00,09:56:00,09:56:59,43233,43394,15135.0,17,15140.0,15,15140.0,15140.0,15130.0,15135.0,127,-10,15135,5,15140,37
2016-06-27 09:57:00,09:57:06,09:57:56,43406,43548,15130.0,25,15135.0,11,15135.0,15135.0,15130.0,15135.0,99,33,15135,8,15140,24
2016-06-27 09:58:00,09:58:03,09:58:57,43563,43792,15135.0,11,15140.0,26,15135.0,15140.0,15130.0,15140.0,164,11,15135,19,15140,16
2016-06-27 09:59:00,09:59:00,09:59:59,43801,44134,15135.0,14,15140.0,28,15140.0,15145.0,15120.0,15140.0,278,-5,15140,18,15145,22
2016-06-27 10:00:00,10:00:01,10:00:59,44140,44420,15140.0,9,15145.0,25,15140.0,15155.0,15140.0,15140.0,186,2,15135,8,15140,25
2016-06-27 10:01:00,10:01:01,10:01:52,44427,44690,15135.0,18,15140.0,15,15140.0,15140.0,15130.0,15130.0,161,89,15130,23,15135,16
2016-06-27 10:02:00,10:02:04,10:02:39,44715,44860,15135.0,9,15140.0,24,15135.0,15155.0,15135.0,15155.0,74,12,15150,19,15155,6
2016-06-27 10:03:00,10:03:03,10:03:59,44905,45184,15150.0,18,15155.0,15,15155.0,15160.0,15140.0,15140.0,221,25,15140,11,15145,21
2016-06-27 10:04:00,10:04:06,10:04:52,45201,45401,15140.0,19,15145.0,19,15145.0,15155.0,15145.0,15150.0,156,-14,15150,3,15155,63
2016-06-27 10:05:00,10:05:00,10:05:59,45418,45488,15150.0,21,15155.0,57,15150.0,15155.0,15150.0,15150.0,31,-7,15150,20,15155,48
2016-06-27 10:06:00,10:06:03,10:06:58,45493,45691,15150.0,25,15155.0,59,15155.0,15160.0,15140.0,15145.0,168,-28,15140,29,15145,7
2016-06-27 10:07:00,10:07:00,10:07:59,45694,45916,15140.0,29,15145.0,7,15145.0,15145.0,15135.0,15145.0,139,-44,15140,29,15145,1
2016-06-27 10:08:00,10:08:00,10:08:57,45919,46148,15140.0,29,15145.0,1,15145.0,15145.0,15130.0,15135.0,153,-11,15135,12,15140,36
2016-06-27 10:09:00,10:09:01,10:09:56,46156,46375,15135.0,2,15140.0,34,15135.0,15145.0,15130.0,15135.0,135,-24,15130,19,15135,17
2016-06-27 10:10:00,10:10:22,10:10:59,46422,46510,15130.0,12,15135.0,28,15130.0,15135.0,15130.0,15135.0,51,9,15130,28,15135,6
2016-06-27 10:11:00,10:11:00,10:11:52,46514,46780,15130.0,28,15135.0,7,15135.0,15135.0,15115.0,15125.0,209,-13,15120,24,15125,2
2016-06-27 10:12:00,10:12:05,10:12:46,46795,46970,15120.0,12,15125.0,34,15120.0,15125.0,15115.0,15120.0,183,21,15120,19,15125,20
2016-06-27 10:13:00,10:13:06,10:13:56,47001,47097,15120.0,25,15125.0,19,15120.0,15120.0,15120.0,15120.0,29,-29,15120,15,15125,31
2016-06-27 10:14:00,10:14:00,10:14:59,47104,47412,15120.0,23,15125.0,26,15125.0,15130.0,15115.0,15130.0,245,136,15130,7,15135,31
2016-06-27 10:15:00,10:15:00,10:15:58,47415,47597,15130.0,7,15135.0,31,15130.0,15135.0,15125.0,15130.0,130,-43,15130,19,15135,18
2016-06-27 10:16:00,10:16:00,10:16:57,47604,47736,15130.0,19,15135.0,20,15130.0,15130.0,15120.0,15125.0,96,-55,15120,37,15130,27
2016-06-27 10:17:00,10:17:17,10:17:59,47771,47934,15120.0,22,15125.0,14,15125.0,15140.0,15125.0,15135.0,138,54,15135,7,15140,18
2016-06-27 10:18:00,10:18:04,10:18:59,47945,48105,15135.0,24,15140.0,11,15140.0,15140.0,15130.0,15130.0,114,-8,15130,4,15130,3
2016-06-27 10:19:00,10:19:00,10:19:54,48107,48230,15130.0,4,15135.0,24,15130.0,15130.0,15125.0,15125.0,74,-10,15125,8,15130,30
2016-06-27 10:20:00,10:20:00,10:20:51,48242,48424,15125.0,5,15130.0,31,15125.0,15135.0,15120.0,15130.0,163,-53,15130,10,15135,25
2016-06-27 10:21:00,10:21:05,10:21:58,48446,48583,15130.0,13,15135.0,24,15130.0,15135.0,15120.0,15135.0,125,-16,15130,29,15140,39
2016-06-27 10:22:00,10:22:15,10:22:52,48625,48702,15130.0,30,15135.0,6,15135.0,15135.0,15130.0,15130.0,64,6,15130,24,15135,20
2016-06-27 10:23:00,10:23:16,10:23:51,48733,48807,15130.0,19,15135.0,21,15130.0,15135.0,15130.0,15135.0,79,8,15130,37,15140,41
2016-06-27 10:24:00,10:24:01,10:24:52,48821,49010,15130.0,21,15135.0,23,15135.0,15135.0,15125.0,15130.0,145,-82,15130,7,15135,35
2016-06-27 10:25:00,10:25:02,10:25:56,49023,49291,15130.0,15,15135.0,31,15130.0,15130.0,15115.0,15125.0,261,-49,15125,16,15130,25
2016-06-27 10:26:00,10:26:03,10:26:51,49304,49548,15125.0,23,15130.0,9,15130.0,15130.0,15120.0,15120.0,211,-105,15115,19,15120,38
2016-06-27 10:27:00,10:27:02,10:27:51,49558,49696,15115.0,25,15120.0,37,15120.0,15130.0,15120.0,15130.0,82,46,15125,23,15130,10
2016-06-27 10:28:00,10:28:02,10:28:59,49714,49929,15125.0,31,15130.0,16,15125.0,15125.0,15120.0,15125.0,215,-179,15120,19,15125,26
2016-06-27 10:29:00,10:29:05,10:29:54,49938,50032,15120.0,11,15125.0,35,15120.0,15125.0,15120.0,15125.0,65,13,15120,30,15125,8
2016-06-27 10:30:00,10:30:00,10:30:45,50049,50229,15120.0,38,15125.0,7,15125.0,15125.0,15120.0,15120.0,147,-21,15120,13,15125,26
2016-06-27 10:31:00,10:31:08,10:31:58,50251,50340,15120.0,28,15125.0,14,15120.0,15125.0,15120.0,15120.0,75,-7,15120,8,15125,28
2016-06-27 10:32:00,10:32:19,10:32:59,50361,50488,15120.0,9,15125.0,31,15120.0,15120.0,15105.0,15105.0,81,-81,15100,28,15110,27
2016-06-27 10:33:00,10:33:00,10:33:57,50491,50587,15100.0,28,15110.0,27,15105.0,15110.0,15105.0,15105.0,46,24,15100,26,15110,26
2016-06-27 10:34:00,10:34:08,10:34:48,50608,50680,15100.0,26,15105.0,4,15105.0,15115.0,15105.0,15110.0,44,8,15110,9,15115,24
2016-06-27 10:35:00,10:35:09,10:35:42,50698,50784,15110.0,10,15115.0,26,15115.0,15125.0,15115.0,15125.0,65,35,15125,4,15130,21
2016-06-27 10:36:00,10:36:13,10:36:49,50824,50976,15125.0,8,15130.0,24,15125.0,15140.0,15125.0,15140.0,148,142,15140,11,15145,25
2016-06-27 10:37:00,10:37:02,10:37:37,50993,51080,15140.0,28,15145.0,6,15145.0,15150.0,15135.0,15135.0,71,1,15135,22,15145,26
2016-06-27 10:38:00,10:38:15,10:38:48,51099,51198,15140.0,63,15145.0,28,15145.0,15145.0,15140.0,15145.0,178,6,15140,23,15145,7
2016-06-27 10:39:00,10:39:02,10:39:37,51206,51256,15140.0,24,15145.0,7,15145.0,15145.0,15140.0,15145.0,69,65,15145,47,15150,56
2016-06-27 10:40:00,10:40:00,10:40:52,51269,51381,15145.0,58,15150.0,57,15150.0,15150.0,15150.0,15150.0,98,90,15150,10,15155,41
2016-06-27 10:41:00,10:41:06,10:41:30,51398,51464,15150.0,13,15155.0,37,15150.0,15155.0,15145.0,15150.0,58,8,15150,10,15155,30
2016-06-27 10:42:00,10:42:03,10:42:39,51501,51582,15150.0,29,15155.0,21,15155.0,15155.0,15150.0,15155.0,56,-16,15150,25,15155,3
2016-06-27 10:43:00,10:43:33,10:43:57,51642,51689,15150.0,10,15155.0,40,15150.0,15155.0,15150.0,15155.0,21,-9,15150,55,15155,18
2016-06-27 10:44:00,10:44:29,10:44:55,51715,51789,15150.0,50,15155.0,39,15150.0,15150.0,15140.0,15140.0,81,-81,15140,12,15145,25
2016-06-27 10:45:00,10:45:31,10:45:56,51833,51893,15140.0,89,15145.0,19,15145.0,15145.0,15145.0,15145.0,64,2,15145,5,15150,42
2016-06-27 10:46:00,10:46:00,10:46:29,51902,51965,15145.0,15,15150.0,33,15150.0,15155.0,15150.0,15150.0,25,15,15150,27,15155,21
2016-06-27 10:47:00,10:47:05,10:47:37,51998,52026,15150.0,34,15155.0,18,15155.0,15155.0,15150.0,15155.0,10,-2,15150,19,15155,32
2016-06-27 10:48:00,10:48:09,10:48:59,52052,52197,15150.0,34,15155.0,17,15155.0,15165.0,15155.0,15165.0,105,93,15160,21,15165,14
2016-06-27 10:49:00,10:49:02,10:49:56,52203,52312,15160.0,23,15165.0,11,15165.0,15170.0,15160.0,15165.0,45,-9,15165,5,15165,2
2016-06-27 10:50:00,10:50:01,10:50:56,52320,52389,15165.0,9,15170.0,28,15165.0,15170.0,15165.0,15165.0,31,19,15165,23,15170,27
2016-06-27 10:51:00,10:51:08,10:51:53,52402,52515,15165.0,24,15170.0,27,15165.0,15165.0,15160.0,15165.0,86,-46,15160,27,15170,28
2016-06-27 10:52:00,10:52:00,10:52:57,52523,52617,15165.0,3,15170.0,27,15165.0,15175.0,15165.0,15170.0,31,23,15170,19,15175,23
2016-06-27 10:53:00,10:53:28,10:53:29,52638,52650,15170.0,30,15175.0,13,15175.0,15175.0,15175.0,15175.0,18,18,15170,22,15175,7
2016-06-27 10:54:00,10:54:00,10:54:49,52682,52837,15170.0,23,15175.0,11,15175.0,15175.0,15160.0,15160.0,92,-52,15160,14,15165,28
2016-06-27 10:55:00,10:55:16,10:55:16,52863,52871,15160.0,26,15165.0,13,15165.0,15165.0,15165.0,15165.0,10,10,15160,23,15165,6
2016-06-27 10:56:00,10:56:07,10:56:41,52906,52952,15160.0,10,15165.0,30,15160.0,15160.0,15160.0,15160.0,8,-4,15155,24,15160,21
2016-06-27 10:57:00,10:57:14,10:57:15,52971,52984,15155.0,17,15160.0,30,15155.0,15155.0,15155.0,15155.0,17,-11,15155,5,15160,33
2016-06-27 10:58:00,10:58:30,10:58:57,53041,53072,15155.0,21,15160.0,32,15155.0,15155.0,15150.0,15150.0,18,-18,15150,27,15155,21
2016-06-27 10:59:00,10:59:03,10:59:59,53086,53166,15150.0,35,15155.0,22,15155.0,15160.0,15155.0,15160.0,54,46,15160,7,15165,31
2016-06-27 11:00:00,11:00:00,11:00:41,53171,53287,15160.0,16,15165.0,21,15160.0,15175.0,15160.0,15175.0,77,33,15175,2,15180,22
2016-06-27 11:01:00,11:01:31,11:01:59,53343,53441,15175.0,23,15180.0,29,15175.0,15185.0,15175.0,15180.0,87,-4,15175,24,15180,3
2016-06-27 11:02:00,11:02:17,11:02:28,53466,53519,15180.0,12,15185.0,24,15185.0,15185.0,15175.0,15180.0,44,18,15175,6,15180,21
2016-06-27 11:03:00,11:03:01,11:03:33,53560,53603,15175.0,4,15180.0,20,15175.0,15175.0,15175.0,15175.0,15,9,15175,16,15180,14
2016-06-27 11:04:00,11:04:03,11:04:57,53632,54011,15175.0,29,15180.0,14,15180.0,15220.0,15180.0,15220.0,405,255,15215,5,15220,23
2016-06-27 11:05:00,11:05:05,11:05:53,54024,54124,15215.0,16,15220.0,21,15220.0,15220.0,15215.0,15220.0,64,-28,15220,20,15225,31
2016-06-27 11:06:00,11:06:02,11:06:44,54127,54286,15220.0,20,15225.0,31,15220.0,15220.0,15210.0,15210.0,101,-37,15210,5,15215,22
2016-06-27 11:07:00,11:07:05,11:07:57,54326,54450,15210.0,13,15215.0,25,15210.0,15215.0,15210.0,15215.0,76,-17,15210,26,15215,3
2016-06-27 11:08:00,11:08:00,11:08:53,54457,54601,15215.0,8,15220.0,23,15215.0,15215.0,15210.0,15215.0,94,48,15215,11,15220,22
2016-06-27 11:09:00,11:09:02,11:09:42,54608,54695,15215.0,15,15220.0,25,15215.0,15220.0,15215.0,15220.0,68,64,15220,17,15225,19
2016-06-27 11:10:00,11:10:01,11:10:49,54716,54810,15220.0,24,15225.0,65,15220.0,15225.0,15220.0,15220.0,86,42,15220,22,15225,14
2016-06-27 11:11:00,11:11:09,11:11:37,54833,54899,15220.0,23,15225.0,14,15220.0,15220.0,15220.0,15220.0,32,-32,15220,9,15225,28
2016-06-27 11:12:00,11:12:06,11:12:59,54932,55118,15220.0,27,15225.0,13,15225.0,15225.0,15210.0,15215.0,160,35,15210,32,15215,24
2016-06-27 11:13:00,11:13:00,11:13:45,55119,55192,15215.0,21,15220.0,24,15215.0,15220.0,15210.0,15220.0,71,-1,15215,20,15220,14
2016-06-27 11:14:00,11:14:24,11:14:50,55237,55375,15215.0,15,15220.0,23,15215.0,15215.0,15205.0,15205.0,177,-139,15205,24,15210,25
2016-06-27 11:15:00,11:15:05,11:15:55,55395,55552,15205.0,18,15210.0,30,15205.0,15215.0,15205.0,15215.0,153,-12,15210,25,15215,2
2016-06-27 11:16:00,11:16:05,11:16:22,55558,55585,15210.0,25,15215.0,5,15215.0,15215.0,15215.0,15215.0,25,15,15210,24,15215,7
2016-06-27 11:17:00,11:17:03,11:17:59,55608,55718,15210.0,19,15215.0,25,15210.0,15215.0,15205.0,15210.0,86,-14,15205,28,15215,26
2016-06-27 11:18:00,11:18:04,11:18:49,55731,55775,15210.0,23,15215.0,2,15215.0,15220.0,15215.0,15220.0,22,18,15210,16,15220,20
2016-06-27 11:19:00,11:19:01,11:19:37,55780,55841,15215.0,43,15220.0,25,15215.0,15215.0,15210.0,15215.0,85,-37,15210,66,15215,15
2016-06-27 11:20:00,11:20:19,11:20:47,55863,55943,15210.0,66,15215.0,24,15215.0,15215.0,15210.0,15210.0,95,79,15205,31,15210,9
2016-06-27 11:21:00,11:21:09,11:21:58,55975,56067,15205.0,17,15210.0,26,15205.0,15205.0,15195.0,15200.0,122,-52,15200,9,15205,38
2016-06-27 11:22:00,11:22:01,11:22:50,56072,56230,15200.0,11,15205.0,38,15200.0,15210.0,15200.0,15205.0,123,47,15205,12,15210,30
2016-06-27 11:23:00,11:23:01,11:23:52,56240,56350,15205.0,12,15210.0,26,15205.0,15220.0,15205.0,15220.0,77,49,15215,20,15220,24
2016-06-27 11:24:00,11:24:08,11:24:46,56369,56436,15215.0,7,15220.0,31,15215.0,15220.0,15215.0,15215.0,14,-4,15210,22,15215,15
2016-06-27 11:25:00,11:25:20,11:25:51,56470,56537,15210.0,17,15215.0,22,15215.0,15220.0,15210.0,15220.0,39,37,15215,27,15220,16
2016-06-27 11:26:00,11:26:07,11:26:59,56561,56680,15215.0,22,15220.0,29,15215.0,15215.0,15210.0,15210.0,74,-53,15210,6,15215,31
2016-06-27 11:27:00,11:27:00,11:27:46,56682,56765,15205.0,28,15215.0,31,15210.0,15215.0,15210.0,15215.0,48,43,15210,8,15215,29
2016-06-27 11:28:00,11:28:02,11:28:59,56782,56914,15210.0,9,15215.0,29,15210.0,15210.0,15200.0,15205.0,83,-25,15205,3,15210,28
2016-06-27 11:29:00,11:29:00,11:29:59,56916,57059,15205.0,3,15210.0,30,15205.0,15210.0,15195.0,15195.0,85,-63,15185,29,15195,29
2016-06-27 11:30:00,11:30:00,11:30:59,57060,57439,15195.0,4,15200.0,16,15190.0,15195.0,15180.0,15190.0,373,-17,15190,21,15195,25
2016-06-27 11:31:00,11:31:00,11:31:54,57442,57781,15190.0,21,15195.0,25,15190.0,15205.0,15190.0,15205.0,381,121,15205,9,15210,33
2016-06-27 11:32:00,11:32:00,11:32:59,57791,57992,15205.0,14,15210.0,30,15205.0,15210.0,15195.0,15195.0,164,-29,15195,3,15200,22
2016-06-27 11:33:00,11:33:00,11:33:56,57993,58120,15190.0,29,15200.0,28,15195.0,15205.0,15195.0,15205.0,61,16,15200,36,15210,27
2016-06-27 11:34:00,11:34:07,11:34:54,58143,58199,15205.0,6,15210.0,29,15205.0,15205.0,15200.0,15200.0,11,-11,15200,29,15210,30
2016-06-27 11:35:00,11:35:00,11:35:53,58204,58384,15200.0,28,15205.0,17,15205.0,15210.0,15200.0,15205.0,138,4,15200,28,15205,8
2016-06-27 11:36:00,11:36:11,11:36:59,58395,58615,15200.0,29,15205.0,10,15205.0,15205.0,15185.0,15190.0,205,-9,15185,27,15190,5
2016-06-27 11:37:00,11:37:02,11:37:51,58626,58749,15185.0,18,15190.0,13,15190.0,15190.0,15185.0,15185.0,61,-15,15185,1,15190,31
2016-06-27 11:38:00,11:38:05,11:38:50,58770,58887,15185.0,12,15190.0,34,15185.0,15185.0,15175.0,15175.0,70,-62,15175,4,15180,28
2016-06-27 11:39:00,11:39:12,11:39:58,58914,58969,15175.0,25,15180.0,20,15180.0,15185.0,15180.0,15180.0,18,16,15180,27,15185,21
2016-06-27 11:40:00,11:40:00,11:40:59,58974,59187,15180.0,27,15185.0,21,15180.0,15180.0,15175.0,15180.0,135,-36,15180,12,15185,40
2016-06-27 11:41:00,11:41:00,11:41:59,59190,59457,15180.0,12,15185.0,40,15180.0,15180.0,15160.0,15165.0,216,-122,15160,24,15165,12
2016-06-27 11:42:00,11:42:10,11:42:59,59473,59623,15160.0,26,15165.0,15,15160.0,15175.0,15160.0,15175.0,111,12,15170,25,15175,21
2016-06-27 11:43:00,11:43:29,11:43:51,59651,59762,15170.0,5,15175.0,37,15175.0,15175.0,15165.0,15165.0,85,-51,15165,13,15170,30
2016-06-27 11:44:00,11:44:01,11:44:45,59780,59921,15165.0,16,15170.0,30,15170.0,15175.0,15170.0,15175.0,98,26,15170,27,15175,16
2016-06-27 11:45:00,11:45:03,11:45:56,59942,60059,15170.0,33,15175.0,7,15175.0,15180.0,15175.0,15175.0,87,-22,15170,46,15180,36
2016-06-27 11:46:00,11:46:37,11:46:53,60106,60186,15175.0,27,15180.0,28,15180.0,15185.0,15180.0,15185.0,73,66,15185,9,15190,31
2016-06-27 11:47:00,11:47:04,11:47:57,60206,60365,15185.0,19,15190.0,28,15185.0,15200.0,15185.0,15190.0,131,77,15190,19,15195,20
2016-06-27 11:48:00,11:48:02,11:48:58,60375,60599,15190.0,25,15195.0,12,15195.0,15205.0,15195.0,15195.0,171,21,15190,34,15200,37
2016-06-27 11:49:00,11:49:06,11:49:44,60613,60703,15195.0,29,15200.0,25,15195.0,15200.0,15195.0,15200.0,59,-3,15200,7,15205,46
2016-06-27 11:50:00,11:50:15,11:50:51,60753,60850,15200.0,40,15205.0,19,15205.0,15210.0,15205.0,15205.0,72,14,15200,24,15205,16
2016-06-27 11:51:00,11:51:10,11:51:23,60869,60919,15200.0,22,15205.0,22,15200.0,15205.0,15200.0,15205.0,41,-17,15200,36,15205,9
2016-06-27 11:52:00,11:52:01,11:52:57,60975,61147,15200.0,26,15205.0,32,15200.0,15200.0,15190.0,15190.0,134,-31,15190,6,15195,37
2016-06-27 11:53:00,11:53:06,11:53:55,61162,61280,15190.0,31,15195.0,11,15195.0,15195.0,15190.0,15190.0,100,-53,15190,6,15195,35
2016-06-27 11:54:00,11:54:05,11:54:57,61296,61490,15190.0,17,15195.0,31,15190.0,15195.0,15185.0,15195.0,216,-53,15195,12,15200,38
2016-06-27 11:55:00,11:55:01,11:55:59,61500,61662,15195.0,6,15200.0,38,15195.0,15195.0,15180.0,15185.0,116,-43,15180,32,15190,51
2016-06-27 11:56:00,11:56:02,11:56:44,61666,61767,15180.0,32,15190.0,52,15185.0,15185.0,15180.0,15185.0,87,50,15180,36,15185,7
2016-06-27 11:57:00,11:57:02,11:57:58,61782,61974,15180.0,40,15185.0,10,15180.0,15195.0,15180.0,15180.0,206,-44,15180,9,15185,32
2016-06-27 11:58:00,11:58:10,11:58:52,62006,62098,15180.0,21,15185.0,26,15180.0,15185.0,15180.0,15185.0,79,-31,15180,17,15185,47
2016-06-27 11:59:00,11:59:01,11:59:59,62110,62226,15180.0,32,15185.0,51,15180.0,15190.0,15180.0,15190.0,118,68,15185,26,15190,20
2016-06-27 12:00:00,12:00:00,12:00:59,62227,62410,15185.0,39,15190.0,10,15190.0,15190.0,15180.0,15180.0,153,-42,15180,37,15185,13
2016-06-27 12:01:00,12:01:04,12:01:58,62415,62584,15180.0,39,15185.0,10,15185.0,15195.0,15185.0,15185.0,170,64,15185,20,15190,54
2016-06-27 12:02:00,12:02:03,12:02:58,62599,62751,15185.0,22,15190.0,60,15185.0,15185.0,15170.0,15175.0,180,-100,15175,2,15180,46
2016-06-27 12:03:00,12:03:01,12:03:58,62760,62927,15175.0,28,15180.0,47,15175.0,15175.0,15165.0,15165.0,179,-137,15165,14,15170,53
2016-06-27 12:04:00,12:04:01,12:04:59,62933,63412,15165.0,14,15170.0,49,15165.0,15195.0,15165.0,15195.0,638,338,15190,35,15195,5
2016-06-27 12:05:00,12:05:10,12:05:58,63430,63601,15190.0,34,15195.0,19,15195.0,15210.0,15190.0,15210.0,169,133,15205,36,15210,18
2016-06-27 12:06:00,12:06:00,12:06:39,63612,63745,15205.0,40,15210.0,17,15210.0,15210.0,15195.0,15200.0,111,-33,15200,9,15205,34
2016-06-27 12:07:00,12:07:00,12:07:42,63778,63860,15200.0,40,15205.0,20,15205.0,15205.0,15200.0,15205.0,50,40,15200,30,15205,19
2016-06-27 12:08:00,12:08:06,12:08:49,63875,64026,15200.0,40,15205.0,18,15200.0,15200.0,15190.0,15190.0,141,-33,15190,11,15195,40
2016-06-27 12:09:00,12:09:03,12:09:43,64042,64088,15190.0,27,15195.0,30,15195.0,15195.0,15195.0,15195.0,41,-1,15190,30,15195,19
2016-06-27 12:10:00,12:10:01,12:10:48,64117,64233,15190.0,26,15195.0,27,15190.0,15205.0,15190.0,15205.0,94,54,15200,38,15205,17
2016-06-27 12:11:00,12:11:05,12:11:57,64256,64392,15200.0,25,15205.0,30,15205.0,15210.0,15205.0,15205.0,84,2,15200,48,15205,13
2016-06-27 12:12:00,12:12:21,12:12:42,64420,64446,15200.0,55,15205.0,20,15200.0,15200.0,15200.0,15200.0,7,-7,15200,45,15205,25
2016-06-27 12:13:00,12:13:01,12:13:59,64476,64620,15200.0,49,15205.0,26,15200.0,15205.0,15200.0,15205.0,109,82,15200,54,15205,3
2016-06-27 12:14:00,12:14:00,12:14:59,64621,64743,15200.0,53,15210.0,46,15205.0,15205.0,15195.0,15200.0,100,-18,15200,14,15205,33
2016-06-27 12:15:00,12:15:00,12:15:55,64747,64866,15200.0,14,15205.0,32,15200.0,15205.0,15200.0,15205.0,50,11,15205,8,15210,45
2016-06-27 12:16:00,12:16:00,12:16:45,64873,64947,15205.0,9,15210.0,46,15205.0,15210.0,15205.0,15210.0,60,26,15205,46,15215,41
2016-06-27 12:17:00,12:17:12,12:17:38,64970,65007,15205.0,29,15210.0,22,15205.0,15205.0,15205.0,15205.0,7,-7,15205,25,15210,29
2016-06-27 12:18:00,12:18:01,12:18:53,65030,65156,15205.0,37,15210.0,22,15210.0,15215.0,15210.0,15215.0,103,4,15215,6,15220,69
2016-06-27 12:19:00,12:19:01,12:19:53,65168,65292,15215.0,6,15220.0,71,15215.0,15220.0,15215.0,15220.0,95,28,15215,28,15220,62
2016-06-27 12:20:00,12:20:05,12:20:54,65300,65538,15215.0,21,15220.0,66,15215.0,15215.0,15190.0,15190.0,213,-118,15185,19,15190,24
2016-06-27 12:21:00,12:21:01,12:21:46,65557,65737,15185.0,16,15190.0,31,15185.0,15190.0,15180.0,15185.0,154,-16,15185,12,15190,25
2016-06-27 12:22:00,12:22:38,12:22:56,65773,65827,15185.0,22,15190.0,24,15185.0,15185.0,15185.0,15185.0,37,-37,15185,27,15190,23
2016-06-27 12:23:00,12:23:01,12:23:53,65832,65942,15185.0,27,15190.0,23,15185.0,15190.0,15185.0,15185.0,66,6,15180,26,15185,11
2016-06-27 12:24:00,12:24:06,12:24:58,65958,66084,15180.0,31,15185.0,10,15185.0,15185.0,15180.0,15180.0,92,-38,15175,28,15180,13
2016-06-27 12:25:00,12:25:05,12:25:59,66102,66262,15175.0,10,15180.0,27,15175.0,15175.0,15165.0,15165.0,68,-13,15165,34,15170,24
2016-06-27 12:26:00,12:26:02,12:26:58,66269,66441,15165.0,34,15170.0,21,15165.0,15170.0,15150.0,15150.0,127,-68,15150,29,15155,21
2016-06-27 12:27:00,12:27:01,12:27:52,66448,66743,15150.0,28,15155.0,24,15150.0,15155.0,15145.0,15145.0,272,34,15145,1,15150,32
2016-06-27 12:28:00,12:28:00,12:28:56,66760,66986,15145.0,30,15150.0,17,15145.0,15150.0,15135.0,15140.0,150,-61,15135,33,15140,3
2016-06-27 12:29:00,12:29:00,12:29:52,66997,67227,15135.0,32,15140.0,15,15140.0,15145.0,15140.0,15140.0,167,49,15140,44,15145,15
2016-06-27 12:30:00,12:30:00,12:30:59,67242,67448,15140.0,44,15145.0,11,15140.0,15150.0,15140.0,15150.0,140,122,15150,15,15155,50
2016-06-27 12:31:00,12:31:01,12:31:55,67452,67636,15150.0,15,15155.0,45,15150.0,15150.0,15135.0,15140.0,115,-77,15140,18,15145,16
2016-06-27 12:32:00,12:32:07,12:32:53,67664,67796,15140.0,12,15145.0,25,15140.0,15140.0,15140.0,15140.0,91,59,15140,8,15145,31
2016-06-27 12:33:00,12:33:00,12:33:49,67811,67989,15140.0,28,15145.0,19,15140.0,15160.0,15140.0,15160.0,159,145,15160,13,15165,33
2016-06-27 12:34:00,12:34:01,12:34:56,68019,68206,15160.0,37,15165.0,27,15160.0,15160.0,15150.0,15155.0,149,-47,15150,27,15155,20
2016-06-27 12:35:00,12:35:07,12:35:59,68218,68552,15150.0,23,15155.0,32,15150.0,15150.0,15120.0,15120.0,383,-263,15120,12,15125,26
2016-06-27 12:36:00,12:36:01,12:36:59,68555,68988,15120.0,12,15125.0,26,15120.0,15135.0,15120.0,15135.0,438,72,15135,16,15140,19
2016-06-27 12:37:00,12:37:02,12:37:56,68996,69272,15135.0,23,15140.0,20,15135.0,15140.0,15125.0,15130.0,202,-37,15125,31,15130,4
2016-06-27 12:38:00,12:38:00,12:38:57,69283,69578,15125.0,23,15130.0,18,15125.0,15140.0,15125.0,15135.0,235,59,15130,37,15135,6
2016-06-27 12:39:00,12:39:02,12:39:54,69588,69927,15130.0,36,15135.0,16,15135.0,15135.0,15115.0,15120.0,369,-171,15120,17,15125,25
2016-06-27 12:40:00,12:40:06,12:40:56,69958,70146,15120.0,27,15125.0,12,15125.0,15125.0,15115.0,15120.0,163,15,15120,6,15125,38
2016-06-27 12:41:00,12:41:04,12:41:41,70166,70296,15120.0,35,15125.0,10,15125.0,15135.0,15125.0,15135.0,109,73,15130,22,15135,7
2016-06-27 12:42:00,12:42:00,12:42:57,70321,70516,15130.0,11,15135.0,33,15130.0,15145.0,15130.0,15145.0,156,40,15145,5,15150,34
2016-06-27 12:43:00,12:43:02,12:43:59,70531,70745,15145.0,26,15150.0,37,15145.0,15145.0,15135.0,15140.0,144,-31,15140,7,15145,43
2016-06-27 12:44:00,12:44:02,12:44:48,70760,70840,15140.0,16,15145.0,33,15140.0,15140.0,15135.0,15140.0,33,-9,15140,14,15145,33
2016-06-27 12:45:00,12:45:21,12:45:52,70872,70963,15140.0,51,15145.0,20,15140.0,15140.0,15135.0,15135.0,66,-40,15135,10,15140,20
2016-06-27 12:46:00,12:46:08,12:46:56,70989,71099,15135.0,41,15140.0,11,15140.0,15150.0,15140.0,15150.0,81,15,15145,43,15155,39
2016-06-27 12:47:00,12:47:02,12:47:58,71116,71343,15150.0,18,15155.0,36,15150.0,15155.0,15150.0,15155.0,293,-67,15155,3,15160,37
2016-06-27 12:48:00,12:48:01,12:48:51,71353,71442,15155.0,11,15160.0,31,15155.0,15155.0,15155.0,15155.0,59,-20,15155,22,15160,40
2016-06-27 12:49:00,12:49:01,12:49:59,71458,71550,15155.0,37,15160.0,20,15155.0,15165.0,15155.0,15165.0,88,45,15165,9,15170,31
2016-06-27 12:50:00,12:50:05,12:50:50,71563,71751,15165.0,24,15170.0,27,15170.0,15175.0,15160.0,15160.0,184,8,15160,13,15165,29
2016-06-27 12:51:00,12:51:02,12:51:54,71766,71881,15160.0,15,15165.0,32,15160.0,15165.0,15155.0,15165.0,88,-6,15165,32,15170,25
2016-06-27 12:52:00,12:52:14,12:52:57,71902,72076,15165.0,46,15170.0,20,15170.0,15175.0,15170.0,15170.0,157,-13,15170,34,15175,32
2016-06-27 12:53:00,12:53:01,12:53:19,72084,72120,15170.0,44,15175.0,13,15170.0,15170.0,15170.0,15170.0,29,-29,15165,37,15170,3
2016-06-27 12:54:00,12:54:06,12:54:52,72178,72303,15165.0,13,15170.0,41,15165.0,15165.0,15160.0,15160.0,93,-47,15155,34,15160,10
2016-06-27 12:55:00,12:55:01,12:55:44,72317,72390,15155.0,30,15160.0,15,15160.0,15160.0,15160.0,15160.0,39,-11,15155,37,15165,42
2016-06-27 12:56:00,12:56:12,12:56:59,72417,72490,15160.0,25,15165.0,18,15165.0,15165.0,15160.0,15160.0,47,1,15155,30,15160,7
2016-06-27 12:57:00,12:57:01,12:57:47,72493,72566,15155.0,30,15160.0,7,15160.0,15160.0,15155.0,15160.0,35,-5,15155,36,15165,33
2016-06-27 12:58:00,12:58:00,12:58:50,72582,72720,15160.0,20,15165.0,28,15160.0,15165.0,15160.0,15165.0,77,28,15160,24,15165,19
2016-06-27 12:59:00,12:59:26,12:59:54,72773,72843,15160.0,16,15165.0,23,15160.0,15160.0,15160.0,15160.0,49,-14,15155,39,15160,5
2016-06-27 13:00:00,13:00:00,13:00:51,72853,73109,15155.0,32,15160.0,13,15160.0,15180.0,15155.0,15175.0,227,51,15170,47,15180,35
2016-06-27 13:01:00,13:01:08,13:01:59,73143,73353,15175.0,10,15180.0,35,15175.0,15185.0,15170.0,15185.0,179,38,15185,5,15190,30
2016-06-27 13:02:00,13:02:00,13:02:56,73356,73566,15185.0,5,15190.0,30,15190.0,15195.0,15185.0,15195.0,195,43,15190,25,15195,3
2016-06-27 13:03:00,13:03:03,13:03:56,73574,73840,15190.0,25,15195.0,27,15190.0,15200.0,15190.0,15195.0,304,152,15190,35,15195,14
2016-06-27 13:04:00,13:04:10,13:04:46,73860,74024,15190.0,29,15195.0,15,15190.0,15195.0,15190.0,15190.0,237,-98,15190,25,15195,11
2016-06-27 13:05:00,13:05:17,13:05:56,74061,74290,15190.0,16,15195.0,33,15190.0,15190.0,15175.0,15180.0,338,-253,15175,36,15185,38
2016-06-27 13:06:00,13:06:14,13:06:59,74320,74431,15180.0,14,15185.0,30,15180.0,15185.0,15180.0,15180.0,57,21,15180,11,15185,44
2016-06-27 13:07:00,13:07:03,13:07:55,74436,74634,15180.0,11,15185.0,42,15180.0,15180.0,15170.0,15170.0,131,-72,15170,4,15175,33
2016-06-27 13:08:00,13:08:09,13:08:49,74662,74762,15170.0,11,15175.0,33,15170.0,15180.0,15170.0,15170.0,34,16,15170,28,15175,9
2016-06-27 13:09:00,13:09:08,13:09:57,74794,74902,15170.0,22,15175.0,12,15175.0,15175.0,15175.0,15175.0,73,-15,15175,22,15180,36
2016-06-27 13:10:00,13:10:34,13:10:59,74940,75034,15175.0,23,15180.0,26,15180.0,15190.0,15180.0,15190.0,91,61,15185,43,15190,11
2016-06-27 13:11:00,13:11:00,13:11:46,75037,75124,15185.0,43,15190.0,11,15190.0,15190.0,15185.0,15185.0,31,-11,15180,38,15185,11
2016-06-27 13:12:00,13:12:09,13:12:59,75161,75312,15180.0,19,15185.0,24,15180.0,15185.0,15175.0,15175.0,105,-21,15170,41,15175,4
2016-06-27 13:13:00,13:13:01,13:13:48,75320,75442,15170.0,42,15175.0,9,15175.0,15185.0,15175.0,15185.0,58,34,15180,20,15185,14
2016-06-27 13:14:00,13:14:07,13:14:48,75467,75600,15180.0,21,15185.0,29,15180.0,15190.0,15180.0,15190.0,109,22,15185,20,15190,16
2016-06-27 13:15:00,13:15:00,13:15:55,75612,75845,15185.0,27,15190.0,9,15190.0,15205.0,15190.0,15205.0,238,90,15200,24,15205,23
2016-06-27 13:16:00,13:16:01,13:16:59,75860,76153,15200.0,34,15205.0,26,15205.0,15220.0,15205.0,15220.0,271,209,15215,54,15220,7
2016-06-27 13:17:00,13:17:00,13:17:51,76154,76567,15215.0,51,15220.0,23,15220.0,15240.0,15220.0,15240.0,497,190,15240,26,15245,60
2016-06-27 13:18:00,13:18:08,13:18:59,76594,76778,15240.0,21,15245.0,63,15240.0,15260.0,15240.0,15260.0,238,188,15255,1,15260,13
2016-06-27 13:19:00,13:19:00,13:19:46,76781,76971,15255.0,42,15260.0,17,15260.0,15260.0,15250.0,15250.0,196,-72,15250,28,15255,39
2016-06-27 13:20:00,13:20:00,13:20:53,76988,77296,15250.0,22,15255.0,46,15250.0,15260.0,15245.0,15245.0,253,-23,15240,30,15245,76
2016-06-27 13:21:00,13:21:00,13:21:27,77307,77443,15240.0,27,15245.0,78,15240.0,15245.0,15235.0,15240.0,125,-21,15240,54,15245,75
2016-06-27 13:22:00,13:22:10,13:22:57,77481,77638,15240.0,56,15245.0,86,15240.0,15240.0,15235.0,15235.0,141,-57,15235,38,15240,31
2016-06-27 13:23:00,13:23:08,13:23:55,77657,77775,15235.0,43,15240.0,34,15240.0,15245.0,15240.0,15245.0,148,78,15240,38,15245,7
2016-06-27 13:24:00,13:24:02,13:24:56,77792,77882,15240.0,33,15245.0,15,15240.0,15245.0,15240.0,15245.0,22,10,15240,27,15245,41
2016-06-27 13:25:00,13:25:01,13:25:34,77894,78056,15240.0,26,15245.0,42,15240.0,15250.0,15240.0,15250.0,140,14,15245,44,15250,14
2016-06-27 13:26:00,13:26:03,13:26:35,78089,78228,15245.0,50,15250.0,32,15250.0,15250.0,15240.0,15240.0,151,-15,15240,30,15245,31
2016-06-27 13:27:00,13:27:03,13:27:52,78259,78454,15240.0,42,15245.0,39,15245.0,15250.0,15245.0,15250.0,218,40,15245,42,15250,7
2016-06-27 13:28:00,13:28:11,13:28:51,78479,78624,15245.0,31,15250.0,23,15250.0,15250.0,15245.0,15245.0,110,-37,15245,8,15250,37
2016-06-27 13:29:00,13:29:12,13:29:59,78647,78773,15245.0,33,15250.0,26,15250.0,15255.0,15245.0,15245.0,86,20,15245,6,15250,38
2016-06-27 13:30:00,13:30:00,13:30:59,78777,78933,15245.0,12,15250.0,38,15245.0,15255.0,15245.0,15250.0,176,54,15250,9,15255,37
2016-06-27 13:31:00,13:31:33,13:31:45,78976,79023,15250.0,40,15255.0,36,15250.0,15250.0,15245.0,15245.0,60,-20,15245,27,15250,38
2016-06-27 13:32:00,13:32:00,13:32:51,79044,79328,15245.0,31,15250.0,35,15245.0,15245.0,15235.0,15240.0,379,-83,15235,17,15240,39
2016-06-27 13:33:00,13:33:09,13:33:59,79360,79495,15235.0,15,15240.0,45,15235.0,15240.0,15230.0,15240.0,87,-2,15235,40,15245,62
2016-06-27 13:34:00,13:34:00,13:34:48,79496,79687,15240.0,7,15245.0,60,15240.0,15240.0,15230.0,15235.0,164,-3,15235,8,15240,36
2016-06-27 13:35:00,13:35:06,13:35:58,79716,79926,15235.0,39,15240.0,22,15240.0,15245.0,15235.0,15240.0,179,20,15235,36,15240,9
2016-06-27 13:36:00,13:36:07,13:36:49,79946,80064,15235.0,37,15240.0,18,15240.0,15245.0,15240.0,15245.0,65,21,15240,33,15245,20
2016-06-27 13:37:00,13:37:03,13:37:49,80085,80280,15240.0,24,15245.0,31,15240.0,15240.0,15230.0,15235.0,158,-38,15230,46,15240,36
2016-06-27 13:38:00,13:38:01,13:38:58,80292,80557,15235.0,11,15240.0,41,15235.0,15245.0,15230.0,15235.0,256,-46,15235,20,15240,42
2016-06-27 13:39:00,13:39:01,13:39:53,80564,80763,15235.0,15,15240.0,47,15240.0,15245.0,15240.0,15240.0,188,97,15240,32,15245,23
2016-06-27 13:40:00,13:40:10,13:40:59,80794,81016,15240.0,18,15245.0,39,15240.0,15245.0,15235.0,15235.0,177,-71,15235,10,15240,85
2016-06-27 13:41:00,13:41:05,13:41:58,81027,81175,15235.0,7,15240.0,82,15235.0,15245.0,15235.0,15240.0,169,87,15235,68,15240,6
2016-06-27 13:42:00,13:42:07,13:42:59,81190,81287,15235.0,66,15240.0,6,15240.0,15240.0,15235.0,15240.0,62,53,15240,25,15245,37
2016-06-27 13:43:00,13:43:01,13:43:46,81296,81439,15240.0,31,15245.0,37,15240.0,15250.0,15240.0,15245.0,134,47,15245,9,15250,42
2016-06-27 13:44:00,13:44:07,13:44:57,81476,81618,15245.0,11,15250.0,38,15245.0,15245.0,15240.0,15245.0,96,-12,15240,43,15245,7
2016-06-27 13:45:00,13:45:07,13:45:57,81641,81860,15240.0,14,15245.0,43,15240.0,15245.0,15240.0,15245.0,172,-5,15245,5,15250,50
2016-06-27 13:46:00,13:46:04,13:46:52,81879,81962,15245.0,3,15250.0,58,15245.0,15250.0,15240.0,15250.0,30,12,15245,15,15250,36
2016-06-27 13:47:00,13:47:02,13:47:49,81971,82110,15245.0,42,15250.0,36,15245.0,15255.0,15245.0,15255.0,119,3,15250,55,15255,30
2016-06-27 13:48:00,13:48:14,13:48:48,82131,82187,15250.0,55,15255.0,41,15250.0,15255.0,15250.0,15255.0,75,13,15250,43,15255,13
2016-06-27 13:49:00,13:49:11,13:49:42,82211,82389,15250.0,40,15255.0,21,15250.0,15265.0,15250.0,15255.0,217,57,15250,47,15255,7
2016-06-27 13:50:00,13:50:00,13:50:58,82425,82716,15250.0,17,15255.0,48,15250.0,15250.0,15240.0,15240.0,255,-37,15235,73,15240,55
2016-06-27 13:51:00,13:51:07,13:51:54,82726,82917,15235.0,76,15240.0,14,15235.0,15235.0,15230.0,15235.0,193,-89,15230,56,15235,11
2016-06-27 13:52:00,13:52:03,13:52:56,82931,83105,15230.0,57,15235.0,23,15230.0,15235.0,15230.0,15230.0,106,-80,15230,31,15235,71
2016-06-27 13:53:00,13:53:01,13:53:54,83118,83433,15230.0,43,15235.0,63,15230.0,15240.0,15230.0,15235.0,491,169,15230,74,15235,10
2016-06-27 13:54:00,13:54:00,13:54:59,83453,83748,15230.0,74,15235.0,18,15235.0,15235.0,15225.0,15225.0,306,-68,15225,46,15230,67
2016-06-27 13:55:00,13:55:00,13:55:58,83751,84279,15225.0,46,15230.0,67,15225.0,15235.0,15215.0,15235.0,923,175,15230,41,15235,13
2016-06-27 13:56:00,13:56:00,13:56:59,84286,84655,15230.0,49,15235.0,22,15235.0,15240.0,15225.0,15240.0,528,342,15235,135,15240,35
2016-06-27 13:57:00,13:57:00,13:57:59,84656,84969,15235.0,145,15240.0,45,15240.0,15250.0,15235.0,15245.0,415,142,15245,56,15250,69
2016-06-27 13:58:00,13:58:01,13:58:59,84979,85428,15245.0,39,15250.0,102,15245.0,15260.0,15240.0,15260.0,807,97,15255,23,15260,42
2016-06-27 13:59:00,13:59:01,13:59:59,85439,86323,15255.0,18,15260.0,61,15255.0,15290.0,15250.0,15270.0,1880,567,15270,26,15275,45
2016-06-27 14:00:00,14:00:00,14:00:59,86324,87330,15270.0,47,15275.0,40,15270.0,15280.0,15250.0,15255.0,2048,-374,15255,2,15260,63
2016-06-27 14:01:00,14:01:00,14:01:59,87335,87733,15255.0,6,15260.0,56,15255.0,15260.0,15235.0,15235.0,640,-379,15235,44,15240,60
2016-06-27 14:02:00,14:02:09,14:02:59,87753,88203,15235.0,88,15240.0,45,15240.0,15265.0,15240.0,15265.0,779,304,15265,32,15270,100
2016-06-27 14:03:00,14:03:00,14:03:58,88207,88767,15265.0,43,15270.0,100,15270.0,15290.0,15265.0,15285.0,949,212,15280,76,15285,45
2016-06-27 14:04:00,14:04:00,14:04:56,88774,89193,15280.0,73,15285.0,41,15285.0,15300.0,15280.0,15295.0,853,193,15290,64,15300,71
2016-06-27 14:05:00,14:05:00,14:05:53,89200,89478,15295.0,18,15300.0,71,15295.0,15295.0,15285.0,15285.0,434,-148,15285,41,15290,105
2016-06-27 14:06:00,14:06:02,14:06:59,89493,89829,15285.0,74,15290.0,106,15285.0,15320.0,15285.0,15315.0,481,289,15315,7,15315,4
2016-06-27 14:07:00,14:07:00,14:07:54,89831,90118,15315.0,7,15320.0,73,15315.0,15320.0,15310.0,15315.0,381,56,15310,126,15315,14
2016-06-27 14:08:00,14:08:01,14:08:55,90130,90601,15310.0,130,15315.0,28,15310.0,15320.0,15300.0,15320.0,1339,-689,15320,33,15325,39
2016-06-27 14:09:00,14:09:01,14:09:59,90621,90905,15320.0,73,15325.0,33,15325.0,15325.0,15310.0,15315.0,343,26,15310,13,15315,40
