,ST,ET,sidx,eidx,bB,bBS,bA,bAS,O,H,L,C,V,OF,eB,eBS,eA,eAS
2016-08-11 08:00:00,08:00:00,08:00:56,892,1106,16610.0,5,16615.0,5,16615.0,16625.0,16585.0,16605.0,294,-158,16605,9,16610,3
2016-08-11 08:01:00,08:01:03,08:01:28,1112,1167,16605.0,10,16610.0,4,16605.0,16620.0,16605.0,16615.0,35,9,16615,5,16620,5
2016-08-11 08:02:00,08:02:03,08:02:52,1178,1184,16615.0,3,16620.0,13,16615.0,16615.0,16615.0,16615.0,3,-3,16610,3,16615,10
2016-08-11 08:03:00,08:03:00,08:03:57,1188,1206,16610.0,5,16615.0,10,16610.0,16610.0,16605.0,16605.0,10,-10,16600,8,16605,11
2016-08-11 08:04:00,08:04:02,08:04:25,1211,1245,16600.0,7,16605.0,13,16600.0,16605.0,16600.0,16600.0,26,10,16600,3,16605,6
2016-08-11 08:05:00,08:05:20,08:05:45,1258,1273,16600.0,12,16605.0,4,16605.0,16610.0,16605.0,16605.0,8,6,16605,7,16610,3
2016-08-11 08:06:00,08:06:13,08:06:51,1280,1339,16605.0,3,16610.0,6,16605.0,16605.0,16595.0,16605.0,58,-16,16600,22,16610,6
2016-08-11 08:07:00,08:07:20,08:07:26,1349,1358,16600.0,20,16605.0,10,16605.0,16605.0,16600.0,16600.0,7,1,16600,17,16605,6
2016-08-11 08:08:00,08:08:05,08:08:52,1368,1411,16600.0,16,16605.0,21,16600.0,16600.0,16590.0,16595.0,31,-23,16590,14,16600,28
2016-08-11 08:09:00,08:09:17,08:09:38,1420,1470,16590.0,13,16595.0,1,16590.0,16590.0,16585.0,16585.0,75,-43,16585,9,16590,7
2016-08-11 08:10:00,08:10:20,08:10:36,1479,1487,16585.0,10,16590.0,31,16590.0,16590.0,16590.0,16590.0,7,5,16590,7,16595,12
2016-08-11 08:11:00,08:11:04,08:11:56,1492,1529,16590.0,9,16595.0,12,16590.0,16595.0,16590.0,16595.0,29,1,16590,9,16595,10
2016-08-11 08:12:00,08:12:20,08:12:58,1537,1568,16590.0,5,16595.0,17,16595.0,16600.0,16590.0,16595.0,23,17,16595,9,16600,10
2016-08-11 08:13:00,08:13:03,08:13:58,1572,1642,16595.0,4,16600.0,10,16600.0,16605.0,16595.0,16595.0,57,27,16595,4,16600,16
2016-08-11 08:14:00,08:14:34,08:14:55,1648,1691,16595.0,5,16600.0,5,16600.0,16605.0,16595.0,16605.0,30,20,16600,7,16605,4
2016-08-11 08:15:00,08:15:26,08:15:26,1699,1699,16600.0,4,16605.0,9,16605.0,16605.0,16605.0,16605.0,1,1,16600,5,16605,8
2016-08-11 08:16:00,08:16:00,08:16:00,0,0,0.0,0,0.0,0,16605.0,16605.0,16605.0,16605.0,0,0,0,0,0,0
2016-08-11 08:17:00,08:17:02,08:17:57,1707,1720,16600.0,17,16605.0,12,16600.0,16605.0,16600.0,16605.0,5,1,16600,14,16605,15
2016-08-11 08:18:00,08:18:02,08:18:57,1722,1728,16600.0,15,16605.0,15,16600.0,16605.0,16600.0,16605.0,3,-1,16600,13,16605,16
2016-08-11 08:19:00,08:19:02,08:19:44,1730,1756,16600.0,14,16605.0,16,16600.0,16605.0,16600.0,16600.0,14,6,16600,14,16605,6
2016-08-11 08:20:00,08:20:06,08:20:59,1764,1818,16600.0,11,16605.0,16,16605.0,16610.0,16605.0,16605.0,59,-17,16600,15,16605,34
2016-08-11 08:21:00,08:21:00,08:21:37,1821,1842,16600.0,15,16605.0,34,16600.0,16605.0,16600.0,16605.0,17,3,16600,8,16605,25
2016-08-11 08:22:00,08:22:07,08:22:38,1847,1864,16600.0,9,16605.0,27,16605.0,16605.0,16600.0,16600.0,14,10,16600,8,16605,18
2016-08-11 08:23:00,08:23:07,08:23:08,1869,1873,16600.0,9,16605.0,20,16605.0,16605.0,16605.0,16605.0,8,8,16600,10,16605,11
2016-08-11 08:24:00,08:24:01,08:24:42,1879,1910,16600.0,9,16605.0,13,16605.0,16615.0,16605.0,16610.0,25,19,16610,7,16615,10
2016-08-11 08:25:00,08:25:01,08:25:51,1912,1971,16610.0,7,16615.0,11,16615.0,16630.0,16615.0,16630.0,51,45,16630,4,16635,10
2016-08-11 08:26:00,08:26:01,08:26:57,1974,2024,16630.0,4,16635.0,10,16630.0,16635.0,16625.0,16630.0,33,17,16630,14,16635,9
2016-08-11 08:27:00,08:27:00,08:27:00,0,0,0.0,0,0.0,0,16630.0,16630.0,16630.0,16630.0,0,0,0,0,0,0
2016-08-11 08:28:00,08:28:04,08:28:14,2029,2053,16630.0,17,16635.0,10,16630.0,16630.0,16620.0,16625.0,28,-12,16620,6,16625,2
2016-08-11 08:29:00,08:29:07,08:29:07,2061,2062,16620.0,5,16625.0,5,16625.0,16625.0,16625.0,16625.0,2,2,16620,6,16625,3
2016-08-11 08:30:00,08:30:36,08:30:39,2069,2077,16620.0,4,16625.0,11,16625.0,16625.0,16620.0,16620.0,7,5,16620,7,16625,6
2016-08-11 08:31:00,08:31:06,08:31:44,2081,2124,16620.0,8,16625.0,6,16625.0,16630.0,16625.0,16630.0,19,12,16630,3,16635,11
2016-08-11 08:32:00,08:32:23,08:32:36,2129,2150,16630.0,3,16635.0,14,16630.0,16635.0,16630.0,16635.0,13,1,16630,6,16635,9
2016-08-11 08:33:00,08:33:05,08:33:43,2155,2167,16630.0,8,16635.0,9,16635.0,16635.0,16630.0,16630.0,8,2,16630,6,16635,6
2016-08-11 08:34:00,08:34:00,08:34:00,0,0,0.0,0,0.0,0,16630.0,16630.0,16630.0,16630.0,0,0,0,0,0,0
2016-08-11 08:35:00,08:35:00,08:35:00,0,0,0.0,0,0.0,0,16630.0,16630.0,16630.0,16630.0,0,0,0,0,0,0
2016-08-11 08:36:00,08:36:05,08:36:59,2175,2188,16630.0,6,16635.0,9,16630.0,16635.0,16630.0,16635.0,7,3,16630,12,16640,8
2016-08-11 08:37:00,08:37:29,08:37:59,2193,2206,16630.0,12,16640.0,8,16640.0,16640.0,16640.0,16640.0,8,8,16635,11,16645,33
2016-08-11 08:38:00,08:38:03,08:38:59,2209,2242,16635.0,12,16645.0,34,16635.0,16640.0,16635.0,16640.0,15,-7,16635,8,16640,17
2016-08-11 08:39:00,08:39:00,08:39:29,2243,2259,16635.0,7,16640.0,23,16640.0,16640.0,16635.0,16640.0,11,9,16635,7,16640,12
2016-08-11 08:40:00,08:40:02,08:40:58,2263,2306,16635.0,7,16640.0,13,16640.0,16640.0,16625.0,16625.0,17,-9,16625,1,16625,3
2016-08-11 08:41:00,08:41:00,08:41:13,2308,2324,16625.0,1,16630.0,14,16625.0,16625.0,16620.0,16620.0,5,-5,16620,10,16625,9
2016-08-11 08:42:00,08:42:00,08:42:36,2331,2350,16620.0,11,16625.0,10,16620.0,16625.0,16620.0,16625.0,10,4,16625,8,16630,4
2016-08-11 08:43:00,08:43:06,08:43:19,2356,2385,16625.0,10,16630.0,5,16630.0,16630.0,16630.0,16630.0,17,5,16625,6,16630,9
2016-08-11 08:44:00,08:44:06,08:44:37,2391,2400,16625.0,7,16630.0,12,16630.0,16630.0,16630.0,16630.0,7,7,16625,10,16630,2
2016-08-11 08:45:00,08:45:06,08:45:28,2405,2415,16625.0,9,16630.0,5,16630.0,16630.0,16625.0,16625.0,8,-6,16620,11,16625,2
2016-08-11 08:46:00,08:46:30,08:46:41,2423,2431,16620.0,9,16625.0,4,16620.0,16625.0,16620.0,16625.0,5,3,16620,9,16630,11
2016-08-11 08:47:00,08:47:00,08:47:00,0,0,0.0,0,0.0,0,16625.0,16625.0,16625.0,16625.0,0,0,0,0,0,0
2016-08-11 08:48:00,08:48:22,08:48:44,2442,2465,16625.0,8,16630.0,9,16625.0,16625.0,16620.0,16625.0,22,-4,16625,5,16630,10
2016-08-11 08:49:00,08:49:15,08:49:40,2475,2494,16625.0,10,16630.0,8,16625.0,16630.0,16625.0,16630.0,11,3,16630,9,16635,5
2016-08-11 08:50:00,08:50:00,08:50:42,2499,2547,16630.0,11,16635.0,4,16635.0,16645.0,16630.0,16640.0,26,6,16635,19,16645,16
2016-08-11 08:51:00,08:51:00,08:51:00,0,0,0.0,0,0.0,0,16640.0,16640.0,16640.0,16640.0,0,0,0,0,0,0
2016-08-11 08:52:00,08:52:32,08:52:42,2561,2658,16640.0,7,16645.0,12,16640.0,16645.0,16635.0,16645.0,104,14,16645,8,16650,23
2016-08-11 08:53:00,08:53:26,08:53:46,2665,2670,16645.0,15,16650.0,23,16645.0,16645.0,16645.0,16645.0,4,-4,16645,8,16650,23
2016-08-11 08:54:00,08:54:01,08:54:45,2673,2693,16645.0,8,16650.0,23,16645.0,16645.0,16640.0,16640.0,16,-16,16640,8,16645,7
2016-08-11 08:55:00,08:55:29,08:55:48,2697,2722,16640.0,5,16645.0,7,16640.0,16640.0,16635.0,16635.0,19,-19,16635,10,16640,8
2016-08-11 08:56:00,08:56:20,08:56:59,2725,2754,16635.0,10,16640.0,8,16640.0,16640.0,16635.0,16640.0,22,12,16635,15,16645,7
2016-08-11 08:57:00,08:57:00,08:57:00,0,0,0.0,0,0.0,0,16640.0,16640.0,16640.0,16640.0,0,0,0,0,0,0
2016-08-11 08:58:00,08:58:00,08:58:00,0,0,0.0,0,0.0,0,16640.0,16640.0,16640.0,16640.0,0,0,0,0,0,0
2016-08-11 08:59:00,08:59:15,08:59:32,2761,2776,16640.0,7,16645.0,7,16645.0,16645.0,16635.0,16635.0,15,-13,16635,8,16645,9
2016-08-11 09:00:00,09:00:01,09:00:15,2783,2830,16635.0,10,16640.0,2,16635.0,16645.0,16630.0,16640.0,37,5,16640,8,16650,25
2016-08-11 09:01:00,09:01:25,09:01:43,2848,2883,16645.0,12,16650.0,8,16650.0,16660.0,16650.0,16655.0,26,16,16655,4,16660,8
2016-08-11 09:02:00,09:02:41,09:02:41,2900,2905,16655.0,6,16660.0,13,16660.0,16660.0,16655.0,16655.0,7,5,16655,8,16660,9
2016-08-11 09:03:00,09:03:00,09:03:00,0,0,0.0,0,0.0,0,16655.0,16655.0,16655.0,16655.0,0,0,0,0,0,0
2016-08-11 09:04:00,09:04:20,09:04:32,2924,2953,16655.0,7,16660.0,9,16660.0,16660.0,16655.0,16655.0,22,2,16655,6,16660,7
2016-08-11 09:05:00,09:05:08,09:05:08,2961,2962,16655.0,9,16660.0,4,16660.0,16660.0,16660.0,16660.0,2,2,16655,13,16665,23
2016-08-11 09:06:00,09:06:38,09:06:49,2980,2996,16655.0,9,16660.0,16,16655.0,16655.0,16650.0,16650.0,13,-11,16650,6,16655,17
2016-08-11 09:07:00,09:07:02,09:07:43,2999,3024,16650.0,5,16655.0,16,16650.0,16655.0,16650.0,16650.0,10,4,16650,9,16655,2
2016-08-11 09:08:00,09:08:08,09:08:38,3030,3038,16650.0,8,16655.0,5,16655.0,16655.0,16650.0,16655.0,3,1,16650,9,16655,4
2016-08-11 09:09:00,09:09:07,09:09:34,3046,3055,16650.0,15,16655.0,4,16655.0,16655.0,16650.0,16650.0,4,-2,16650,4,16655,9
2016-08-11 09:10:00,09:10:02,09:10:02,3067,3067,16650.0,8,16655.0,10,16650.0,16650.0,16650.0,16650.0,1,-1,16650,7,16655,11
2016-08-11 09:11:00,09:11:03,09:11:26,3073,3096,16650.0,7,16655.0,10,16650.0,16650.0,16645.0,16645.0,15,-15,16645,6,16650,6
2016-08-11 09:12:00,09:12:14,09:12:20,3100,3117,16645.0,9,16650.0,6,16645.0,16645.0,16640.0,16640.0,18,-18,16640,7,16645,5
2016-08-11 09:13:00,09:13:00,09:13:00,0,0,0.0,0,0.0,0,16640.0,16640.0,16640.0,16640.0,0,0,0,0,0,0
2016-08-11 09:14:00,09:14:35,09:14:44,3129,3174,16640.0,9,16645.0,8,16640.0,16640.0,16625.0,16625.0,34,-24,16625,3,16630,5
2016-08-11 09:15:00,09:15:10,09:15:59,3185,3215,16625.0,3,16630.0,6,16625.0,16630.0,16625.0,16625.0,12,-6,16625,3,16630,5
2016-08-11 09:16:00,09:16:00,09:16:48,3217,3235,16625.0,6,16630.0,5,16625.0,16625.0,16620.0,16620.0,14,-14,16620,7,16630,6
2016-08-11 09:17:00,09:17:00,09:17:00,0,0,0.0,0,0.0,0,16620.0,16620.0,16620.0,16620.0,0,0,0,0,0,0
2016-08-11 09:18:00,09:18:04,09:18:06,3260,3271,16625.0,6,16630.0,7,16630.0,16630.0,16630.0,16630.0,9,5,16630,2,16635,8
2016-08-11 09:19:00,09:19:18,09:19:19,3286,3290,16630.0,10,16635.0,5,16635.0,16635.0,16635.0,16635.0,5,3,16635,1,16640,11
2016-08-11 09:20:00,09:20:30,09:20:32,3306,3316,16635.0,2,16640.0,15,16635.0,16635.0,16630.0,16630.0,6,-4,16625,5,16630,2
2016-08-11 09:21:00,09:21:01,09:21:36,3324,3338,16625.0,3,16630.0,6,16630.0,16630.0,16620.0,16620.0,4,-2,16620,10,16625,7
2016-08-11 09:22:00,09:22:00,09:22:00,3350,3350,16620.0,9,16625.0,8,16620.0,16620.0,16620.0,16620.0,1,-1,16620,6,16625,10
2016-08-11 09:23:00,09:23:33,09:23:57,3365,3369,16620.0,6,16625.0,11,16620.0,16620.0,16620.0,16620.0,2,-2,16620,4,16625,12
2016-08-11 09:24:00,09:24:00,09:24:00,0,0,0.0,0,0.0,0,16620.0,16620.0,16620.0,16620.0,0,0,0,0,0,0
2016-08-11 09:25:00,09:25:24,09:25:59,3384,3418,16620.0,12,16625.0,9,16620.0,16625.0,16620.0,16625.0,26,4,16620,9,16625,4
2016-08-11 09:26:00,09:26:00,09:26:57,3419,3436,16620.0,11,16630.0,10,16620.0,16620.0,16620.0,16620.0,6,-6,16620,5,16625,6
2016-08-11 09:27:00,09:27:00,09:27:00,0,0,0.0,0,0.0,0,16620.0,16620.0,16620.0,16620.0,0,0,0,0,0,0
2016-08-11 09:28:00,09:28:31,09:28:32,3452,3460,16620.0,6,16625.0,7,16625.0,16625.0,16625.0,16625.0,6,4,16625,6,16630,8
2016-08-11 09:29:00,09:29:35,09:29:41,3474,3488,16625.0,11,16630.0,6,16630.0,16630.0,16630.0,16630.0,7,5,16630,9,16635,6
2016-08-11 09:30:00,09:30:00,09:30:59,3495,3560,16630.0,10,16635.0,5,16635.0,16640.0,16630.0,16635.0,30,5,16635,7,16640,7
2016-08-11 09:31:00,09:31:14,09:31:14,3567,3586,16635.0,2,16640.0,9,16640.0,16640.0,16635.0,16635.0,22,12,16635,1,16640,7
2016-08-11 09:32:00,09:32:31,09:32:46,3599,3616,16635.0,6,16640.0,8,16635.0,16635.0,16630.0,16630.0,13,-13,16630,4,16635,6
2016-08-11 09:33:00,09:33:20,09:33:47,3622,3662,16630.0,4,16635.0,7,16630.0,16630.0,16625.0,16625.0,24,-16,16625,7,16630,6
2016-08-11 09:34:00,09:34:04,09:34:48,3667,3681,16625.0,8,16630.0,5,16630.0,16630.0,16630.0,16630.0,6,4,16630,3,16635,7
2016-08-11 09:35:00,09:35:05,09:35:58,3691,3768,16630.0,8,16635.0,3,16635.0,16645.0,16635.0,16640.0,39,7,16640,6,16645,5
2016-08-11 09:36:00,09:36:03,09:36:06,3772,3780,16640.0,6,16645.0,4,16645.0,16645.0,16645.0,16645.0,4,2,16645,9,16650,8
2016-08-11 09:37:00,09:37:49,09:37:49,3790,3790,16645.0,7,16650.0,8,16650.0,16650.0,16650.0,16650.0,1,1,16645,8,16650,6
2016-08-11 09:38:00,09:38:06,09:38:59,3795,3811,16645.0,7,16650.0,7,16650.0,16650.0,16645.0,16645.0,2,0,16645,4,16650,11
2016-08-11 09:39:00,09:39:02,09:39:02,3814,3817,16645.0,4,16650.0,11,16645.0,16645.0,16645.0,16645.0,3,-3,16645,4,16650,13
2016-08-11 09:40:00,09:40:00,09:40:00,0,0,0.0,0,0.0,0,16645.0,16645.0,16645.0,16645.0,0,0,0,0,0,0
2016-08-11 09:41:00,09:41:04,09:41:38,3837,3857,16645.0,6,16650.0,11,16650.0,16655.0,16650.0,16655.0,14,8,16655,5,16660,5
2016-08-11 09:42:00,09:42:36,09:42:38,3872,3878,16655.0,12,16660.0,4,16660.0,16660.0,16655.0,16655.0,5,3,16655,8,16660,1
2016-08-11 09:43:00,09:43:00,09:43:00,0,0,0.0,0,0.0,0,16655.0,16655.0,16655.0,16655.0,0,0,0,0,0,0
2016-08-11 09:44:00,09:44:05,09:44:58,3889,3972,16655.0,10,16660.0,6,16660.0,16665.0,16660.0,16660.0,54,-7,16660,7,16665,4
2016-08-11 09:45:00,09:45:00,09:45:09,3975,3992,16660.0,7,16665.0,4,16665.0,16665.0,16665.0,16665.0,12,-4,16665,2,16670,11
2016-08-11 09:46:00,09:46:06,09:46:59,4005,4054,16665.0,7,16670.0,11,16670.0,16670.0,16660.0,16660.0,33,-31,16660,1,16665,13
2016-08-11 09:47:00,09:47:49,09:47:57,4060,4069,16660.0,1,16665.0,15,16660.0,16660.0,16660.0,16660.0,2,-2,16655,18,16665,15
2016-08-11 09:48:00,09:48:51,09:48:57,4077,4085,16660.0,6,16665.0,13,16665.0,16665.0,16660.0,16665.0,6,2,16660,1,16665,12
2016-08-11 09:49:00,09:49:10,09:49:18,4091,4099,16660.0,8,16665.0,14,16660.0,16660.0,16660.0,16660.0,4,-3,16655,18,16665,15
2016-08-11 09:50:00,09:50:02,09:50:41,4113,4166,16660.0,8,16665.0,12,16665.0,16670.0,16660.0,16670.0,33,7,16670,1,16675,17
2016-08-11 09:51:00,09:51:02,09:51:52,4185,4228,16670.0,10,16675.0,10,16675.0,16675.0,16670.0,16675.0,16,4,16675,6,16680,6
2016-08-11 09:52:00,09:52:01,09:52:25,4238,4266,16675.0,8,16680.0,4,16680.0,16680.0,16680.0,16680.0,21,-11,16675,9,16680,5
2016-08-11 09:53:00,09:53:01,09:53:52,4273,4293,16675.0,9,16680.0,3,16680.0,16680.0,16680.0,16680.0,5,1,16680,6,16685,22
2016-08-11 09:54:00,09:54:21,09:54:55,4305,4353,16680.0,6,16685.0,20,16680.0,16685.0,16680.0,16680.0,18,-14,16675,10,16680,8
2016-08-11 09:55:00,09:55:11,09:55:40,4356,4406,16675.0,11,16680.0,10,16675.0,16680.0,16675.0,16680.0,39,4,16675,8,16680,2
2016-08-11 09:56:00,09:56:05,09:56:51,4425,4459,16675.0,10,16680.0,5,16675.0,16680.0,16675.0,16680.0,20,18,16680,8,16685,6
2016-08-11 09:57:00,09:57:04,09:57:47,4469,4488,16680.0,7,16685.0,23,16680.0,16680.0,16675.0,16675.0,11,-11,16675,7,16680,15
2016-08-11 09:58:00,09:58:03,09:58:39,4499,4524,16675.0,8,16680.0,14,16675.0,16675.0,16675.0,16675.0,4,-4,16675,8,16680,5
2016-08-11 09:59:00,09:59:01,09:59:32,4529,4557,16675.0,10,16680.0,6,16680.0,16680.0,16680.0,16680.0,31,17,16675,13,16685,24
2016-08-11 10:00:00,10:00:01,10:00:01,4568,4580,16675.0,11,16680.0,8,16675.0,16675.0,16675.0,16675.0,15,-15,16670,18,16675,2
2016-08-11 10:01:00,10:01:00,10:01:00,0,0,0.0,0,0.0,0,16675.0,16675.0,16675.0,16675.0,0,0,0,0,0,0
2016-08-11 10:02:00,10:02:28,10:02:38,4614,4630,16670.0,20,16675.0,7,16675.0,16675.0,16675.0,16675.0,8,6,16675,11,16680,5
2016-08-11 10:03:00,10:03:00,10:03:00,0,0,0.0,0,0.0,0,16675.0,16675.0,16675.0,16675.0,0,0,0,0,0,0
2016-08-11 10:04:00,10:04:00,10:04:00,0,0,0.0,0,0.0,0,16675.0,16675.0,16675.0,16675.0,0,0,0,0,0,0
2016-08-11 10:05:00,10:05:00,10:05:00,0,0,0.0,0,0.0,0,16675.0,16675.0,16675.0,16675.0,0,0,0,0,0,0
2016-08-11 10:06:00,10:06:10,10:06:48,4664,4709,16675.0,12,16680.0,14,16675.0,16675.0,16670.0,16675.0,57,-53,16670,2,16675,12
2016-08-11 10:07:00,10:07:14,10:07:29,4715,4731,16670.0,2,16675.0,13,16670.0,16670.0,16670.0,16670.0,5,-5,16670,5,16675,9
2016-08-11 10:08:00,10:08:03,10:08:19,4743,4760,16670.0,8,16675.0,11,16670.0,16670.0,16670.0,16670.0,5,-3,16665,38,16670,5
2016-08-11 10:09:00,10:09:22,10:09:48,4775,4787,16665.0,37,16670.0,11,16665.0,16670.0,16665.0,16670.0,4,0,16665,34,16670,11
2016-08-11 10:10:00,10:10:00,10:10:00,0,0,0.0,0,0.0,0,16670.0,16670.0,16670.0,16670.0,0,0,0,0,0,0
2016-08-11 10:11:00,10:11:00,10:11:00,0,0,0.0,0,0.0,0,16670.0,16670.0,16670.0,16670.0,0,0,0,0,0,0
2016-08-11 10:12:00,10:12:04,10:12:45,4828,4866,16665.0,32,16670.0,16,16670.0,16675.0,16670.0,16670.0,23,21,16670,6,16675,18
2016-08-11 10:13:00,10:13:12,10:13:12,4869,4869,16670.0,6,16675.0,18,16670.0,16670.0,16670.0,16670.0,1,-1,16670,4,16675,19
2016-08-11 10:14:00,10:14:05,10:14:05,4886,4886,16670.0,7,16675.0,17,16670.0,16670.0,16670.0,16670.0,1,-1,16670,6,16675,18
2016-08-11 10:15:00,10:15:50,10:15:50,4913,4913,16670.0,6,16675.0,16,16670.0,16670.0,16670.0,16670.0,1,-1,16670,5,16675,15
2016-08-11 10:16:00,10:16:10,10:16:15,4921,4925,16670.0,11,16675.0,17,16675.0,16675.0,16670.0,16670.0,2,0,16670,12,16675,15
2016-08-11 10:17:00,10:17:00,10:17:00,0,0,0.0,0,0.0,0,16670.0,16670.0,16670.0,16670.0,0,0,0,0,0,0
2016-08-11 10:18:00,10:18:53,10:18:54,4934,4940,16670.0,36,16675.0,15,16675.0,16675.0,16675.0,16675.0,14,12,16675,6,16680,10
2016-08-11 10:19:00,10:19:00,10:19:00,0,0,0.0,0,0.0,0,16675.0,16675.0,16675.0,16675.0,0,0,0,0,0,0
2016-08-11 10:20:00,10:20:02,10:20:04,4955,4963,16675.0,8,16680.0,18,16675.0,16675.0,16670.0,16670.0,8,-8,16670,29,16675,3
2016-08-11 10:21:00,10:21:00,10:21:00,0,0,0.0,0,0.0,0,16670.0,16670.0,16670.0,16670.0,0,0,0,0,0,0
2016-08-11 10:22:00,10:22:46,10:22:46,5030,5030,16670.0,37,16675.0,14,16675.0,16675.0,16675.0,16675.0,1,1,16670,38,16675,13
2016-08-11 10:23:00,10:23:17,10:23:17,5045,5045,16670.0,37,16675.0,13,16670.0,16670.0,16670.0,16670.0,1,-1,16670,36,16675,11
2016-08-11 10:24:00,10:24:00,10:24:00,0,0,0.0,0,0.0,0,16670.0,16670.0,16670.0,16670.0,0,0,0,0,0,0
2016-08-11 10:25:00,10:25:00,10:25:00,0,0,0.0,0,0.0,0,16670.0,16670.0,16670.0,16670.0,0,0,0,0,0,0
2016-08-11 10:26:00,10:26:00,10:26:00,0,0,0.0,0,0.0,0,16670.0,16670.0,16670.0,16670.0,0,0,0,0,0,0
2016-08-11 10:27:00,10:27:00,10:27:00,0,0,0.0,0,0.0,0,16670.0,16670.0,16670.0,16670.0,0,0,0,0,0,0
2016-08-11 10:28:00,10:28:46,10:28:56,5117,5158,16670.0,37,16675.0,11,16670.0,16670.0,16670.0,16670.0,58,-44,16670,1,16675,34
2016-08-11 10:29:00,10:29:23,10:29:54,5166,5188,16670.0,8,16675.0,32,16670.0,16670.0,16670.0,16670.0,14,-12,16665,32,16670,10
2016-08-11 10:30:00,10:30:42,10:30:47,5200,5213,16665.0,33,16670.0,5,16670.0,16675.0,16670.0,16675.0,8,8,16670,10,16675,53
2016-08-11 10:31:00,10:31:17,10:31:48,5215,5231,16670.0,11,16675.0,53,16675.0,16675.0,16670.0,16675.0,6,4,16670,8,16675,49
2016-08-11 10:32:00,10:32:17,10:32:17,5238,5240,16670.0,6,16675.0,49,16675.0,16675.0,16675.0,16675.0,3,3,16670,7,16675,47
2016-08-11 10:33:00,10:33:00,10:33:00,0,0,0.0,0,0.0,0,16675.0,16675.0,16675.0,16675.0,0,0,0,0,0,0
2016-08-11 10:34:00,10:34:00,10:34:00,0,0,0.0,0,0.0,0,16675.0,16675.0,16675.0,16675.0,0,0,0,0,0,0
2016-08-11 10:35:00,10:35:09,10:35:53,5259,5299,16670.0,10,16675.0,47,16675.0,16680.0,16670.0,16670.0,72,52,16670,11,16675,9
2016-08-11 10:36:00,10:36:15,10:36:15,5303,5309,16670.0,11,16675.0,10,16675.0,16675.0,16675.0,16675.0,9,9,16675,7,16680,21
2016-08-11 10:37:00,10:37:02,10:37:53,5320,5340,16675.0,6,16680.0,32,16675.0,16675.0,16670.0,16670.0,13,-9,16670,6,16675,7
2016-08-11 10:38:00,10:38:15,10:38:33,5350,5362,16670.0,5,16675.0,10,16670.0,16670.0,16670.0,16670.0,6,-2,16665,32,16670,6
2016-08-11 10:39:00,10:39:00,10:39:38,5366,5411,16665.0,33,16670.0,6,16665.0,16665.0,16655.0,16655.0,70,-58,16655,10,16660,9
2016-08-11 10:40:00,10:40:02,10:40:20,5416,5448,16655.0,7,16660.0,9,16655.0,16655.0,16650.0,16650.0,22,-20,16650,5,16655,13
2016-08-11 10:41:00,10:41:26,10:41:26,5468,5468,16650.0,8,16655.0,13,16650.0,16650.0,16650.0,16650.0,1,-1,16650,7,16655,14
2016-08-11 10:42:00,10:42:04,10:42:50,5474,5500,16650.0,2,16655.0,13,16650.0,16650.0,16645.0,16645.0,9,-9,16645,17,16650,16
2016-08-11 10:43:00,10:43:26,10:43:59,5512,5539,16645.0,18,16650.0,18,16645.0,16645.0,16640.0,16640.0,9,-9,16640,7,16645,8
2016-08-11 10:44:00,10:44:55,10:44:58,5568,5589,16640.0,9,16645.0,10,16640.0,16640.0,16640.0,16640.0,21,1,16640,2,16645,10
2016-08-11 10:45:00,10:45:18,10:45:41,5611,5667,16640.0,5,16645.0,10,16640.0,16640.0,16625.0,16630.0,60,-56,16630,6,16635,9
2016-08-11 10:46:00,10:46:13,10:46:48,5681,5712,16630.0,17,16635.0,12,16635.0,16640.0,16635.0,16640.0,37,35,16640,11,16645,18
2016-08-11 10:47:00,10:47:10,10:47:39,5717,5752,16640.0,13,16645.0,20,16640.0,16645.0,16635.0,16640.0,22,-12,16640,6,16645,25
2016-08-11 10:48:00,10:48:29,10:48:29,5757,5757,16640.0,13,16645.0,25,16640.0,16640.0,16640.0,16640.0,1,-1,16640,14,16645,24
2016-08-11 10:49:00,10:49:00,10:49:00,0,0,0.0,0,0.0,0,16640.0,16640.0,16640.0,16640.0,0,0,0,0,0,0
2016-08-11 10:50:00,10:50:00,10:50:35,5767,5807,16640.0,14,16645.0,22,16640.0,16640.0,16635.0,16635.0,26,-12,16635,6,16640,8
2016-08-11 10:51:00,10:51:51,10:51:52,5821,5825,16635.0,9,16640.0,4,16635.0,16635.0,16635.0,16635.0,3,-3,16635,7,16640,4
2016-08-11 10:52:00,10:52:05,10:52:56,5830,5847,16635.0,9,16640.0,4,16640.0,16645.0,16640.0,16645.0,7,7,16640,18,16645,18
2016-08-11 10:53:00,10:53:00,10:53:00,0,0,0.0,0,0.0,0,16645.0,16645.0,16645.0,16645.0,0,0,0,0,0,0
2016-08-11 10:54:00,10:54:03,10:54:17,5851,5865,16640.0,17,16645.0,18,16645.0,16645.0,16645.0,16645.0,20,16,16645,10,16650,64
2016-08-11 10:55:00,10:55:00,10:55:00,0,0,0.0,0,0.0,0,16645.0,16645.0,16645.0,16645.0,0,0,0,0,0,0
2016-08-11 10:56:00,10:56:47,10:56:47,5881,5882,16645.0,13,16650.0,65,16645.0,16645.0,16645.0,16645.0,2,-2,16645,11,16650,66
2016-08-11 10:57:00,10:57:56,10:57:56,5891,5891,16645.0,9,16650.0,65,16645.0,16645.0,16645.0,16645.0,2,-2,16645,7,16650,66
2016-08-11 10:58:00,10:58:00,10:58:00,0,0,0.0,0,0.0,0,16645.0,16645.0,16645.0,16645.0,0,0,0,0,0,0
2016-08-11 10:59:00,10:59:15,10:59:41,5904,5923,16645.0,11,16650.0,65,16645.0,16645.0,16640.0,16640.0,10,-10,16640,7,16645,10
2016-08-11 11:00:00,11:00:03,11:00:06,5931,5955,16640.0,9,16645.0,10,16645.0,16645.0,16640.0,16640.0,27,-25,16640,5,16645,11
2016-08-11 11:01:00,11:01:04,11:01:33,5982,5994,16640.0,8,16645.0,13,16640.0,16645.0,16640.0,16645.0,2,0,16640,10,16645,8
2016-08-11 11:02:00,11:02:09,11:02:37,6010,6025,16640.0,6,16645.0,12,16645.0,16650.0,16645.0,16650.0,8,8,16645,3,16650,66
2016-08-11 11:03:00,11:03:00,11:03:00,0,0,0.0,0,0.0,0,16650.0,16650.0,16650.0,16650.0,0,0,0,0,0,0
2016-08-11 11:04:00,11:04:00,11:04:00,0,0,0.0,0,0.0,0,16650.0,16650.0,16650.0,16650.0,0,0,0,0,0,0
2016-08-11 11:05:00,11:05:00,11:05:00,0,0,0.0,0,0.0,0,16650.0,16650.0,16650.0,16650.0,0,0,0,0,0,0
2016-08-11 11:06:00,11:06:04,11:06:04,6075,6075,16645.0,6,16650.0,66,16650.0,16650.0,16650.0,16650.0,1,1,16645,5,16650,65
2016-08-11 11:07:00,11:07:01,11:07:17,6086,6102,16645.0,4,16650.0,67,16645.0,16645.0,16640.0,16640.0,10,-4,16640,1,16645,23
2016-08-11 11:08:00,11:08:03,11:08:29,6109,6122,16640.0,3,16645.0,29,16640.0,16640.0,16640.0,16640.0,3,-3,16640,2,16645,28
2016-08-11 11:09:00,11:09:00,11:09:00,0,0,0.0,0,0.0,0,16640.0,16640.0,16640.0,16640.0,0,0,0,0,0,0
2016-08-11 11:10:00,11:10:03,11:10:17,6142,6147,16640.0,6,16645.0,28,16645.0,16645.0,16645.0,16645.0,2,2,16640,5,16645,24
2016-08-11 11:11:00,11:11:04,11:11:46,6153,6218,16640.0,5,16645.0,23,16645.0,16665.0,16645.0,16660.0,161,151,16660,6,16665,7
2016-08-11 11:12:00,11:12:09,11:12:24,6227,6236,16660.0,7,16665.0,5,16660.0,16665.0,16660.0,16665.0,5,3,16660,13,16670,8
2016-08-11 11:13:00,11:13:09,11:13:43,6252,6296,16665.0,7,16670.0,11,16670.0,16670.0,16670.0,16670.0,46,18,16670,6,16675,16
2016-08-11 11:14:00,11:14:00,11:14:00,0,0,0.0,0,0.0,0,16670.0,16670.0,16670.0,16670.0,0,0,0,0,0,0
2016-08-11 11:15:00,11:15:03,11:15:45,6307,6347,16670.0,17,16675.0,8,16675.0,16675.0,16670.0,16675.0,29,-17,16670,9,16675,6
2016-08-11 11:16:00,11:16:55,11:16:55,6362,6362,16670.0,8,16675.0,10,16670.0,16670.0,16670.0,16670.0,1,-1,16670,7,16675,11
2016-08-11 11:17:00,11:17:14,11:17:16,6367,6376,16670.0,7,16675.0,11,16675.0,16680.0,16675.0,16680.0,11,11,16675,8,16680,11
2016-08-11 11:18:00,11:18:00,11:18:00,0,0,0.0,0,0.0,0,16680.0,16680.0,16680.0,16680.0,0,0,0,0,0,0
2016-08-11 11:19:00,11:19:03,11:19:03,6391,6396,16675.0,12,16680.0,12,16680.0,16680.0,16680.0,16680.0,8,8,16680,9,16685,3
2016-08-11 11:20:00,11:20:33,11:20:57,6409,6417,16680.0,5,16685.0,10,16680.0,16680.0,16680.0,16680.0,3,-3,16675,8,16680,4
2016-08-11 11:21:00,11:21:00,11:21:00,0,0,0.0,0,0.0,0,16680.0,16680.0,16680.0,16680.0,0,0,0,0,0,0
2016-08-11 11:22:00,11:22:00,11:22:00,0,0,0.0,0,0.0,0,16680.0,16680.0,16680.0,16680.0,0,0,0,0,0,0
2016-08-11 11:23:00,11:23:01,11:23:08,6426,6428,16675.0,9,16680.0,3,16680.0,16680.0,16680.0,16680.0,2,2,16675,10,16685,11
2016-08-11 11:24:00,11:24:00,11:24:50,6440,6444,16680.0,5,16685.0,12,16680.0,16680.0,16680.0,16680.0,3,-3,16675,9,16680,4
2016-08-11 11:25:00,11:25:00,11:25:00,0,0,0.0,0,0.0,0,16680.0,16680.0,16680.0,16680.0,0,0,0,0,0,0
2016-08-11 11:26:00,11:26:15,11:26:41,6452,6469,16675.0,9,16680.0,6,16680.0,16680.0,16680.0,16680.0,7,3,16675,10,16680,6
2016-08-11 11:27:00,11:27:03,11:27:57,6473,6515,16675.0,8,16680.0,6,16680.0,16690.0,16680.0,16690.0,15,15,16690,1,16695,22
2016-08-11 11:28:00,11:28:54,11:28:54,6532,6532,16690.0,8,16695.0,9,16690.0,16690.0,16690.0,16690.0,1,-1,16690,7,16695,10
2016-08-11 11:29:00,11:29:32,11:29:51,6538,6550,16690.0,10,16695.0,10,16695.0,16695.0,16695.0,16695.0,4,4,16690,11,16695,6
2016-08-11 11:30:00,11:30:31,11:30:44,6555,6578,16690.0,13,16695.0,8,16695.0,16700.0,16695.0,16695.0,14,6,16695,6,16700,25
2016-08-11 11:31:00,11:31:06,11:31:48,6585,6596,16695.0,7,16700.0,24,16695.0,16695.0,16695.0,16695.0,9,-8,16695,11,16700,23
2016-08-11 11:32:00,11:32:55,11:32:55,6612,6612,16690.0,22,16695.0,9,16690.0,16690.0,16690.0,16690.0,1,-1,16690,19,16695,10
2016-08-11 11:33:00,11:33:00,11:33:00,0,0,0.0,0,0.0,0,16690.0,16690.0,16690.0,16690.0,0,0,0,0,0,0
2016-08-11 11:34:00,11:34:24,11:34:30,6621,6623,16690.0,21,16695.0,27,16690.0,16690.0,16690.0,16690.0,2,-2,16690,19,16695,26
2016-08-11 11:35:00,11:35:13,11:35:40,6625,6628,16690.0,19,16695.0,27,16690.0,16690.0,16690.0,16690.0,4,-4,16690,16,16695,26
2016-08-11 11:36:00,11:36:00,11:36:00,0,0,0.0,0,0.0,0,16690.0,16690.0,16690.0,16690.0,0,0,0,0,0,0
2016-08-11 11:37:00,11:37:07,11:37:07,6634,6634,16690.0,19,16695.0,9,16695.0,16695.0,16695.0,16695.0,1,1,16690,22,16695,8
2016-08-11 11:38:00,11:38:50,11:38:50,6641,6641,16690.0,19,16695.0,7,16690.0,16690.0,16690.0,16690.0,1,-1,16690,16,16695,8
2016-08-11 11:39:00,11:39:00,11:39:00,0,0,0.0,0,0.0,0,16690.0,16690.0,16690.0,16690.0,0,0,0,0,0,0
2016-08-11 11:40:00,11:40:22,11:40:23,6647,6650,16690.0,20,16695.0,7,16695.0,16695.0,16690.0,16690.0,3,1,16690,18,16695,7
2016-08-11 11:41:00,11:41:00,11:41:00,0,0,0.0,0,0.0,0,16690.0,16690.0,16690.0,16690.0,0,0,0,0,0,0
2016-08-11 11:42:00,11:42:30,11:42:49,6654,6657,16690.0,18,16695.0,8,16695.0,16695.0,16695.0,16695.0,2,2,16690,18,16695,6
2016-08-11 11:43:00,11:43:00,11:43:00,0,0,0.0,0,0.0,0,16695.0,16695.0,16695.0,16695.0,0,0,0,0,0,0
2016-08-11 11:44:00,11:44:00,11:44:00,0,0,0.0,0,0.0,0,16695.0,16695.0,16695.0,16695.0,0,0,0,0,0,0
2016-08-11 11:45:00,11:45:12,11:45:23,6667,6680,16690.0,18,16695.0,7,16695.0,16695.0,16695.0,16695.0,9,-1,16690,17,16695,6
2016-08-11 11:46:00,11:46:00,11:46:00,0,0,0.0,0,0.0,0,16695.0,16695.0,16695.0,16695.0,0,0,0,0,0,0
2016-08-11 11:47:00,11:47:33,11:47:49,6687,6707,16690.0,19,16695.0,12,16695.0,16700.0,16695.0,16700.0,16,14,16700,3,16705,16
2016-08-11 11:48:00,11:48:27,11:48:49,6716,6726,16700.0,11,16705.0,13,16700.0,16705.0,16700.0,16705.0,3,1,16700,10,16705,10
2016-08-11 11:49:00,11:49:21,11:49:36,6731,6745,16700.0,12,16705.0,10,16700.0,16705.0,16700.0,16705.0,15,7,16700,11,16705,5
2016-08-11 11:50:00,11:50:04,11:50:55,6754,6765,16700.0,10,16705.0,9,16700.0,16700.0,16700.0,16700.0,6,-6,16700,4,16700,2
2016-08-11 11:51:00,11:51:03,11:51:54,6768,6795,16700.0,5,16705.0,9,16700.0,16700.0,16700.0,16700.0,22,-10,16700,15,16705,10
2016-08-11 11:52:00,11:52:00,11:52:00,0,0,0.0,0,0.0,0,16700.0,16700.0,16700.0,16700.0,0,0,0,0,0,0
2016-08-11 11:53:00,11:53:07,11:53:07,6803,6803,16700.0,15,16705.0,9,16700.0,16700.0,16700.0,16700.0,2,-2,16700,13,16705,7
2016-08-11 11:54:00,11:54:00,11:54:52,6806,6817,16700.0,14,16705.0,9,16705.0,16705.0,16700.0,16705.0,9,1,16700,8,16705,7
2016-08-11 11:55:00,11:55:18,11:55:19,6820,6823,16700.0,9,16705.0,8,16700.0,16705.0,16700.0,16705.0,2,0,16700,9,16705,9
2016-08-11 11:56:00,11:56:03,11:56:43,6828,6852,16700.0,9,16705.0,5,16705.0,16715.0,16705.0,16710.0,13,11,16710,8,16715,9
2016-08-11 11:57:00,11:57:00,11:57:29,6857,6878,16710.0,9,16715.0,12,16715.0,16715.0,16710.0,16710.0,18,-14,16705,35,16710,2
2016-08-11 11:58:00,11:58:03,11:58:03,6883,6883,16705.0,35,16710.0,6,16710.0,16710.0,16710.0,16710.0,1,1,16705,36,16710,5
2016-08-11 11:59:00,11:59:00,11:59:00,6891,6892,16705.0,35,16710.0,7,16710.0,16710.0,16710.0,16710.0,2,2,16705,34,16710,5
2016-08-11 12:00:00,12:00:44,12:00:58,6900,6918,16705.0,35,16710.0,6,16710.0,16715.0,16710.0,16710.0,12,6,16710,5,16715,6
2016-08-11 12:01:00,12:01:20,12:01:38,6924,6932,16710.0,3,16715.0,8,16715.0,16715.0,16710.0,16710.0,3,1,16710,5,16715,10
2016-08-11 12:02:00,12:02:50,12:02:51,6941,6943,16710.0,6,16715.0,9,16715.0,16715.0,16715.0,16715.0,2,2,16710,7,16715,7
2016-08-11 12:03:00,12:03:21,12:03:51,6946,6956,16710.0,7,16715.0,7,16715.0,16715.0,16715.0,16715.0,5,5,16710,8,16715,1
2016-08-11 12:04:00,12:04:21,12:04:56,6960,6979,16710.0,7,16715.0,1,16715.0,16715.0,16715.0,16715.0,7,7,16710,7,16715,2
2016-08-11 12:05:00,12:05:57,12:05:57,6989,6992,16710.0,9,16715.0,5,16715.0,16715.0,16715.0,16715.0,5,5,16715,3,16720,17
2016-08-11 12:06:00,12:06:21,12:06:57,6998,7017,16715.0,4,16720.0,19,16720.0,16720.0,16715.0,16715.0,7,-3,16715,6,16720,18
2016-08-11 12:07:00,12:07:03,12:07:51,7021,7051,16715.0,4,16720.0,19,16715.0,16720.0,16710.0,16720.0,18,-8,16715,2,16720,17
2016-08-11 12:08:00,12:08:57,12:08:57,7062,7066,16710.0,31,16715.0,6,16715.0,16715.0,16715.0,16715.0,6,6,16715,3,16720,19
2016-08-11 12:09:00,12:09:06,12:09:34,7069,7083,16715.0,3,16720.0,19,16715.0,16715.0,16710.0,16715.0,11,1,16710,30,16715,5
2016-08-11 12:10:00,12:10:00,12:10:27,7087,7106,16710.0,30,16715.0,6,16715.0,16720.0,16715.0,16720.0,14,12,16715,5,16720,34
2016-08-11 12:11:00,12:11:40,12:11:40,7108,7108,16715.0,6,16720.0,34,16715.0,16715.0,16715.0,16715.0,1,-1,16715,5,16720,35
2016-08-11 12:12:00,12:12:51,12:12:51,7112,7112,16715.0,6,16720.0,35,16715.0,16715.0,16715.0,16715.0,1,-1,16715,5,16720,33
2016-08-11 12:13:00,12:13:00,12:13:00,0,0,0.0,0,0.0,0,16715.0,16715.0,16715.0,16715.0,0,0,0,0,0,0
2016-08-11 12:14:00,12:14:19,12:14:26,7119,7127,16715.0,19,16720.0,31,16715.0,16720.0,16715.0,16715.0,4,0,16715,21,16720,14
2016-08-11 12:15:00,12:15:00,12:15:47,7130,7170,16715.0,21,16720.0,14,16720.0,16725.0,16715.0,16725.0,30,12,16720,13,16725,8
2016-08-11 12:16:00,12:16:00,12:16:51,7177,7185,16720.0,11,16725.0,15,16725.0,16725.0,16720.0,16720.0,5,-1,16720,9,16725,12
2016-08-11 12:17:00,12:17:33,12:17:33,7189,7189,16720.0,8,16725.0,12,16725.0,16725.0,16725.0,16725.0,1,1,16720,9,16725,8
2016-08-11 12:18:00,12:18:35,12:18:52,7198,7202,16720.0,9,16725.0,16,16720.0,16725.0,16720.0,16725.0,4,-2,16720,7,16725,15
2016-08-11 12:19:00,12:19:00,12:19:00,0,0,0.0,0,0.0,0,16725.0,16725.0,16725.0,16725.0,0,0,0,0,0,0
2016-08-11 12:20:00,12:20:00,12:20:45,7206,7226,16720.0,7,16725.0,14,16725.0,16725.0,16720.0,16720.0,19,17,16720,11,16725,7
2016-08-11 12:21:00,12:21:11,12:21:11,7230,7230,16720.0,11,16725.0,8,16720.0,16720.0,16720.0,16720.0,1,-1,16720,8,16725,11
2016-08-11 12:22:00,12:22:00,12:22:00,0,0,0.0,0,0.0,0,16720.0,16720.0,16720.0,16720.0,0,0,0,0,0,0
2016-08-11 12:23:00,12:23:00,12:23:00,0,0,0.0,0,0.0,0,16720.0,16720.0,16720.0,16720.0,0,0,0,0,0,0
2016-08-11 12:24:00,12:24:26,12:24:56,7244,7257,16720.0,3,16725.0,31,16720.0,16720.0,16715.0,16720.0,10,4,16720,3,16725,31
2016-08-11 12:25:00,12:25:29,12:25:56,7262,7265,16720.0,3,16725.0,31,16720.0,16720.0,16720.0,16720.0,3,-3,16715,43,16720,3
2016-08-11 12:26:00,12:26:00,12:26:00,0,0,0.0,0,0.0,0,16720.0,16720.0,16720.0,16720.0,0,0,0,0,0,0
2016-08-11 12:27:00,12:27:00,12:27:00,0,0,0.0,0,0.0,0,16720.0,16720.0,16720.0,16720.0,0,0,0,0,0,0
2016-08-11 12:28:00,12:28:00,12:28:00,0,0,0.0,0,0.0,0,16720.0,16720.0,16720.0,16720.0,0,0,0,0,0,0
2016-08-11 12:29:00,12:29:09,12:29:20,7279,7283,16715.0,64,16720.0,25,16715.0,16720.0,16715.0,16720.0,4,2,16715,64,16720,23
2016-08-11 12:30:00,12:30:00,12:30:00,0,0,0.0,0,0.0,0,16720.0,16720.0,16720.0,16720.0,0,0,0,0,0,0
2016-08-11 12:31:00,12:31:00,12:31:00,0,0,0.0,0,0.0,0,16720.0,16720.0,16720.0,16720.0,0,0,0,0,0,0
2016-08-11 12:32:00,12:32:30,12:32:50,7290,7293,16715.0,63,16720.0,27,16715.0,16715.0,16715.0,16715.0,2,-2,16715,61,16720,30
2016-08-11 12:33:00,12:33:58,12:33:58,7297,7297,16715.0,61,16720.0,31,16715.0,16715.0,16715.0,16715.0,1,-1,16715,58,16720,39
2016-08-11 12:34:00,12:34:10,12:34:41,7299,7327,16715.0,58,16720.0,31,16715.0,16720.0,16715.0,16715.0,29,-27,16715,32,16720,43
2016-08-11 12:35:00,12:35:55,12:35:55,7333,7334,16715.0,10,16720.0,45,16715.0,16715.0,16715.0,16715.0,2,-2,16715,8,16720,47
2016-08-11 12:36:00,12:36:59,12:36:59,7341,7341,16715.0,11,16720.0,42,16715.0,16715.0,16715.0,16715.0,1,-1,16715,10,16720,43
2016-08-11 12:37:00,12:37:04,12:37:54,7343,7346,16715.0,10,16720.0,42,16715.0,16715.0,16715.0,16715.0,2,-2,16715,6,16720,38
2016-08-11 12:38:00,12:38:38,12:38:38,7350,7350,16715.0,13,16720.0,38,16720.0,16720.0,16720.0,16720.0,1,1,16715,14,16720,37
2016-08-11 12:39:00,12:39:00,12:39:00,0,0,0.0,0,0.0,0,16720.0,16720.0,16720.0,16720.0,0,0,0,0,0,0
2016-08-11 12:40:00,12:40:00,12:40:00,0,0,0.0,0,0.0,0,16720.0,16720.0,16720.0,16720.0,0,0,0,0,0,0
2016-08-11 12:41:00,12:41:00,12:41:00,0,0,0.0,0,0.0,0,16720.0,16720.0,16720.0,16720.0,0,0,0,0,0,0
2016-08-11 12:42:00,12:42:15,12:42:58,7358,7363,16715.0,39,16720.0,21,16720.0,16720.0,16720.0,16720.0,7,7,16715,39,16720,12
2016-08-11 12:43:00,12:43:02,12:43:29,7365,7368,16715.0,40,16720.0,12,16715.0,16715.0,16715.0,16715.0,2,-2,16715,38,16720,26
2016-08-11 12:44:00,12:44:04,12:44:04,7372,7373,16715.0,37,16720.0,26,16715.0,16715.0,16715.0,16715.0,2,-2,16715,35,16720,29
2016-08-11 12:45:00,12:45:00,12:45:00,0,0,0.0,0,0.0,0,16715.0,16715.0,16715.0,16715.0,0,0,0,0,0,0
2016-08-11 12:46:00,12:46:00,12:46:00,0,0,0.0,0,0.0,0,16715.0,16715.0,16715.0,16715.0,0,0,0,0,0,0
2016-08-11 12:47:00,12:47:53,12:47:53,7381,7381,16715.0,33,16720.0,29,16715.0,16715.0,16715.0,16715.0,1,-1,16715,32,16720,30
2016-08-11 12:48:00,12:48:55,12:48:58,7384,7389,16715.0,32,16720.0,30,16715.0,16715.0,16715.0,16715.0,9,-9,16715,23,16720,33
2016-08-11 12:49:00,12:49:30,12:49:38,7393,7408,16715.0,23,16720.0,32,16715.0,16720.0,16715.0,16720.0,8,-4,16715,21,16720,28
2016-08-11 12:50:00,12:50:00,12:50:00,7411,7418,16715.0,21,16720.0,28,16720.0,16720.0,16720.0,16720.0,12,12,16715,28,16720,13
2016-08-11 12:51:00,12:51:00,12:51:00,0,0,0.0,0,0.0,0,16720.0,16720.0,16720.0,16720.0,0,0,0,0,0,0
2016-08-11 12:52:00,12:52:37,12:52:37,7425,7425,16715.0,26,16720.0,15,16715.0,16715.0,16715.0,16715.0,1,-1,16715,25,16720,18
2016-08-11 12:53:00,12:53:00,12:53:00,0,0,0.0,0,0.0,0,16715.0,16715.0,16715.0,16715.0,0,0,0,0,0,0
2016-08-11 12:54:00,12:54:54,12:54:54,7429,7429,16715.0,26,16720.0,18,16715.0,16715.0,16715.0,16715.0,2,-2,16715,23,16720,21
2016-08-11 12:55:00,12:55:00,12:55:00,0,0,0.0,0,0.0,0,16715.0,16715.0,16715.0,16715.0,0,0,0,0,0,0
2016-08-11 12:56:00,12:56:00,12:56:00,0,0,0.0,0,0.0,0,16715.0,16715.0,16715.0,16715.0,0,0,0,0,0,0
2016-08-11 12:57:00,12:57:00,12:57:00,0,0,0.0,0,0.0,0,16715.0,16715.0,16715.0,16715.0,0,0,0,0,0,0
2016-08-11 12:58:00,12:58:27,12:58:27,7435,7435,16715.0,26,16720.0,18,16715.0,16715.0,16715.0,16715.0,1,-1,16715,25,16720,19
2016-08-11 12:59:00,12:59:00,12:59:00,0,0,0.0,0,0.0,0,16715.0,16715.0,16715.0,16715.0,0,0,0,0,0,0
2016-08-11 13:00:00,13:00:00,13:00:00,0,0,0.0,0,0.0,0,16715.0,16715.0,16715.0,16715.0,0,0,0,0,0,0
2016-08-11 13:01:00,13:01:26,13:01:51,7447,7477,16715.0,26,16720.0,22,16720.0,16720.0,16720.0,16720.0,36,36,16715,25,16720,13
2016-08-11 13:02:00,13:02:05,13:02:59,7482,7500,16715.0,24,16720.0,13,16720.0,16725.0,16720.0,16725.0,17,17,16720,17,16725,3
2016-08-11 13:03:00,13:03:04,13:03:29,7507,7536,16720.0,20,16725.0,14,16725.0,16730.0,16725.0,16730.0,20,18,16725,11,16730,16
2016-08-11 13:04:00,13:04:00,13:04:00,0,0,0.0,0,0.0,0,16730.0,16730.0,16730.0,16730.0,0,0,0,0,0,0
2016-08-11 13:05:00,13:05:00,13:05:00,0,0,0.0,0,0.0,0,16730.0,16730.0,16730.0,16730.0,0,0,0,0,0,0
2016-08-11 13:06:00,13:06:33,13:06:33,7554,7558,16725.0,12,16730.0,21,16725.0,16725.0,16725.0,16725.0,4,-4,16725,9,16730,20
2016-08-11 13:07:00,13:07:03,13:07:34,7560,7588,16725.0,9,16730.0,21,16725.0,16730.0,16720.0,16720.0,21,-19,16720,2,16720,14
2016-08-11 13:08:00,13:08:03,13:08:34,7590,7600,16720.0,2,16725.0,12,16720.0,16720.0,16715.0,16715.0,4,-4,16715,38,16720,16
2016-08-11 13:09:00,13:09:03,13:09:03,7602,7605,16715.0,38,16720.0,17,16715.0,16715.0,16715.0,16715.0,4,-4,16715,33,16720,16
2016-08-11 13:10:00,13:10:00,13:10:00,0,0,0.0,0,0.0,0,16715.0,16715.0,16715.0,16715.0,0,0,0,0,0,0
2016-08-11 13:11:00,13:11:00,13:11:00,0,0,0.0,0,0.0,0,16715.0,16715.0,16715.0,16715.0,0,0,0,0,0,0
2016-08-11 13:12:00,13:12:19,13:12:35,7614,7620,16715.0,40,16720.0,17,16720.0,16720.0,16715.0,16715.0,5,-3,16715,34,16720,8
2016-08-11 13:13:00,13:13:05,13:13:38,7624,7644,16715.0,35,16720.0,8,16715.0,16715.0,16715.0,16715.0,16,-16,16715,16,16720,13
2016-08-11 13:14:00,13:14:05,13:14:36,7647,7666,16715.0,16,16720.0,13,16715.0,16715.0,16710.0,16710.0,23,-23,16710,27,16715,8
2016-08-11 13:15:00,13:15:00,13:15:00,0,0,0.0,0,0.0,0,16710.0,16710.0,16710.0,16710.0,0,0,0,0,0,0
2016-08-11 13:16:00,13:16:51,13:16:55,7679,7682,16710.0,31,16715.0,9,16710.0,16715.0,16710.0,16715.0,3,-1,16710,29,16715,6
2016-08-11 13:17:00,13:17:00,13:17:00,0,0,0.0,0,0.0,0,16715.0,16715.0,16715.0,16715.0,0,0,0,0,0,0
2016-08-11 13:18:00,13:18:34,13:18:36,7689,7696,16710.0,31,16715.0,7,16710.0,16710.0,16710.0,16710.0,7,-7,16710,20,16715,13
2016-08-11 13:19:00,13:19:04,13:19:34,7702,7713,16710.0,19,16715.0,18,16710.0,16710.0,16710.0,16710.0,8,-8,16710,10,16715,15
2016-08-11 13:20:00,13:20:05,13:20:35,7719,7741,16710.0,14,16715.0,12,16710.0,16710.0,16705.0,16705.0,18,-18,16705,19,16710,7
2016-08-11 13:21:00,13:21:00,13:21:00,0,0,0.0,0,0.0,0,16705.0,16705.0,16705.0,16705.0,0,0,0,0,0,0
2016-08-11 13:22:00,13:22:00,13:22:00,0,0,0.0,0,0.0,0,16705.0,16705.0,16705.0,16705.0,0,0,0,0,0,0
2016-08-11 13:23:00,13:23:00,13:23:00,0,0,0.0,0,0.0,0,16705.0,16705.0,16705.0,16705.0,0,0,0,0,0,0
2016-08-11 13:24:00,13:24:00,13:24:00,0,0,0.0,0,0.0,0,16705.0,16705.0,16705.0,16705.0,0,0,0,0,0,0
2016-08-11 13:25:00,13:25:28,13:25:59,7765,7791,16705.0,21,16710.0,15,16705.0,16705.0,16705.0,16705.0,21,-21,16700,16,16705,9
2016-08-11 13:26:00,13:26:00,13:26:59,7795,7832,16700.0,16,16705.0,10,16705.0,16705.0,16700.0,16700.0,27,3,16700,15,16705,9
2016-08-11 13:27:00,13:27:00,13:27:27,7835,7841,16700.0,15,16705.0,9,16705.0,16705.0,16700.0,16700.0,4,2,16700,21,16705,5
2016-08-11 13:28:00,13:28:00,13:28:00,0,0,0.0,0,0.0,0,16700.0,16700.0,16700.0,16700.0,0,0,0,0,0,0
2016-08-11 13:29:00,13:29:00,13:29:00,0,0,0.0,0,0.0,0,16700.0,16700.0,16700.0,16700.0,0,0,0,0,0,0
2016-08-11 13:30:00,13:30:00,13:30:34,7853,7867,16700.0,13,16705.0,13,16700.0,16700.0,16695.0,16695.0,16,-14,16695,22,16700,7
2016-08-11 13:31:00,13:31:02,13:31:44,7877,7900,16695.0,23,16700.0,7,16700.0,16700.0,16695.0,16700.0,9,-1,16695,20,16700,16
2016-08-11 13:32:00,13:32:04,13:32:52,7907,7928,16695.0,20,16700.0,16,16695.0,16700.0,16695.0,16700.0,7,1,16695,22,16700,9
2016-08-11 13:33:00,13:33:04,13:33:51,7933,7952,16695.0,22,16700.0,9,16695.0,16700.0,16695.0,16700.0,6,0,16695,19,16700,8
2016-08-11 13:34:00,13:34:02,13:34:46,7960,7989,16695.0,15,16700.0,13,16700.0,16700.0,16695.0,16700.0,9,-1,16695,14,16700,9
2016-08-11 13:35:00,13:35:00,13:35:59,7994,8030,16695.0,15,16700.0,10,16700.0,16705.0,16695.0,16705.0,10,0,16700,10,16705,19
2016-08-11 13:36:00,13:36:05,13:36:53,8032,8054,16700.0,11,16705.0,19,16700.0,16705.0,16700.0,16705.0,10,-2,16700,11,16705,16
2016-08-11 13:37:00,13:37:07,13:37:51,8058,8075,16700.0,12,16705.0,16,16705.0,16705.0,16705.0,16705.0,5,5,16700,10,16705,12
2016-08-11 13:38:00,13:38:06,13:38:48,8082,8111,16700.0,10,16705.0,12,16700.0,16705.0,16700.0,16705.0,8,-2,16700,9,16705,10
2016-08-11 13:39:00,13:39:06,13:39:59,8117,8143,16700.0,10,16705.0,10,16700.0,16705.0,16700.0,16705.0,8,0,16700,10,16705,10
2016-08-11 13:40:00,13:40:17,13:40:53,8146,8169,16700.0,9,16705.0,11,16700.0,16705.0,16700.0,16705.0,6,-2,16700,9,16705,8
2016-08-11 13:41:00,13:41:06,13:41:55,8176,8215,16700.0,8,16705.0,4,16700.0,16705.0,16700.0,16700.0,10,-2,16700,10,16705,5
2016-08-11 13:42:00,13:42:05,13:42:48,8223,8248,16700.0,11,16705.0,7,16705.0,16705.0,16700.0,16705.0,8,-2,16700,6,16705,11
2016-08-11 13:43:00,13:43:01,13:43:42,8252,8280,16700.0,5,16705.0,11,16705.0,16705.0,16700.0,16705.0,9,-1,16700,7,16705,11
2016-08-11 13:44:00,13:44:07,13:44:51,8287,8321,16700.0,8,16705.0,12,16700.0,16705.0,16700.0,16700.0,10,-4,16700,7,16705,13
2016-08-11 13:45:00,13:45:07,13:45:52,8327,8348,16700.0,7,16705.0,12,16700.0,16705.0,16700.0,16705.0,9,-3,16700,7,16705,10
2016-08-11 13:46:00,13:46:00,13:46:49,8353,8385,16700.0,8,16705.0,11,16700.0,16705.0,16700.0,16705.0,9,3,16700,9,16705,7
2016-08-11 13:47:00,13:47:02,13:47:41,8392,8421,16700.0,8,16705.0,8,16705.0,16705.0,16700.0,16705.0,10,-2,16700,9,16705,12
2016-08-11 13:48:00,13:48:08,13:48:58,8427,8465,16700.0,8,16705.0,12,16700.0,16705.0,16700.0,16705.0,18,4,16700,22,16705,5
2016-08-11 13:49:00,13:49:07,13:49:49,8469,8496,16700.0,23,16705.0,5,16705.0,16710.0,16705.0,16710.0,10,8,16705,16,16710,10
2016-08-11 13:50:00,13:50:04,13:50:59,8505,8552,16705.0,16,16710.0,15,16710.0,16710.0,16705.0,16710.0,27,7,16705,24,16710,5
2016-08-11 13:51:00,13:51:02,13:51:58,8557,8613,16705.0,24,16710.0,7,16710.0,16715.0,16705.0,16715.0,13,3,16710,11,16715,15
2016-08-11 13:52:00,13:52:25,13:52:52,8637,8662,16710.0,7,16715.0,15,16715.0,16715.0,16710.0,16715.0,6,2,16710,6,16715,13
2016-08-11 13:53:00,13:53:05,13:53:37,8670,8689,16710.0,6,16715.0,14,16710.0,16715.0,16710.0,16715.0,7,1,16710,11,16715,10
2016-08-11 13:54:00,13:54:03,13:54:57,8694,8741,16710.0,11,16715.0,10,16715.0,16720.0,16710.0,16720.0,14,4,16720,11,16720,11
2016-08-11 13:55:00,13:55:00,13:55:58,8743,8898,16715.0,10,16720.0,11,16720.0,16735.0,16720.0,16735.0,115,95,16730,12,16735,38
2016-08-11 13:56:00,13:56:04,13:56:57,8900,8977,16730.0,10,16735.0,38,16735.0,16735.0,16730.0,16735.0,29,25,16730,10,16735,31
2016-08-11 13:57:00,13:57:02,13:57:56,8980,9083,16730.0,10,16735.0,31,16735.0,16745.0,16730.0,16745.0,61,49,16740,23,16745,30
2016-08-11 13:58:00,13:58:02,13:58:55,9089,9170,16740.0,23,16745.0,31,16745.0,16745.0,16740.0,16745.0,51,-25,16740,22,16745,23
2016-08-11 13:59:00,13:59:00,13:59:59,9174,9349,16740.0,35,16745.0,23,16745.0,16755.0,16740.0,16755.0,156,130,16750,32,16755,21
2016-08-11 14:00:00,14:00:00,14:00:42,9352,9453,16750.0,32,16755.0,21,16755.0,16755.0,16740.0,16750.0,71,-31,16750,5,16755,37
2016-08-11 14:01:00,14:01:00,14:01:51,9458,9497,16750.0,5,16755.0,39,16750.0,16755.0,16750.0,16750.0,20,-8,16750,5,16755,42
2016-08-11 14:02:00,14:02:04,14:02:51,9503,9531,16750.0,5,16755.0,42,16750.0,16750.0,16745.0,16745.0,9,-9,16745,283,16750,30
2016-08-11 14:03:00,14:03:00,14:03:57,9537,9571,16745.0,281,16750.0,32,16750.0,16750.0,16745.0,16745.0,33,-31,16745,246,16750,62
2016-08-11 14:04:00,14:04:18,14:04:55,9577,9599,16745.0,247,16750.0,64,16745.0,16750.0,16745.0,16750.0,6,-2,16745,241,16750,76
2016-08-11 14:05:00,14:05:00,14:05:46,9602,9631,16745.0,242,16750.0,77,16750.0,16750.0,16745.0,16745.0,9,-1,16745,237,16750,55
2016-08-11 14:06:00,14:06:00,14:06:57,9635,9674,16745.0,237,16750.0,56,16750.0,16750.0,16745.0,16745.0,17,9,16745,235,16750,29
2016-08-11 14:07:00,14:07:09,14:07:45,9678,9720,16745.0,233,16750.0,30,16745.0,16750.0,16745.0,16750.0,42,32,16750,17,16755,61
2016-08-11 14:08:00,14:08:15,14:08:45,9733,9756,16750.0,14,16755.0,65,16750.0,16755.0,16750.0,16755.0,13,-3,16750,22,16755,52
2016-08-11 14:09:00,14:09:06,14:09:57,9767,9795,16750.0,27,16755.0,52,16750.0,16755.0,16750.0,16755.0,11,-9,16750,21,16755,45
