,ST,ET,sidx,eidx,bB,bBS,bA,bAS,O,H,L,C,V,OF,eB,eBS,eA,eAS
2016-09-12 08:00:00,08:00:00,08:00:59,3596,4222,16635.0,45,16640.0,55,16640.0,16640.0,16620.0,16630.0,959,71,16625,35,16630,3
2016-09-12 08:01:00,08:01:00,08:01:57,4226,4593,16625.0,35,16630.0,6,16630.0,16630.0,16615.0,16620.0,457,-100,16620,23,16625,47
2016-09-12 08:02:00,08:02:00,08:02:59,4602,4998,16620.0,28,16625.0,45,16625.0,16635.0,16620.0,16635.0,490,-160,16635,21,16640,14
2016-09-12 08:03:00,08:03:00,08:03:54,5002,5358,16635.0,22,16640.0,14,16640.0,16650.0,16635.0,16645.0,394,-18,16640,43,16645,12
2016-09-12 08:04:00,08:04:00,08:04:59,5368,5615,16640.0,45,16645.0,16,16640.0,16645.0,16635.0,16640.0,358,-96,16635,42,16640,4
2016-09-12 08:05:00,08:05:00,08:05:57,5619,5933,16635.0,46,16640.0,4,16640.0,16645.0,16625.0,16630.0,415,-147,16625,43,16630,21
2016-09-12 08:06:00,08:06:00,08:06:34,5941,6139,16625.0,44,16630.0,14,16625.0,16630.0,16625.0,16630.0,382,294,16630,8,16635,105
2016-09-12 08:07:00,08:07:00,08:07:54,6166,6290,16630.0,61,16635.0,89,16630.0,16640.0,16630.0,16640.0,112,104,16635,58,16640,43
2016-09-12 08:08:00,08:08:01,08:08:54,6298,6552,16635.0,60,16640.0,36,16640.0,16640.0,16635.0,16640.0,425,-203,16635,42,16640,10
2016-09-12 08:09:00,08:09:03,08:09:57,6571,6868,16635.0,25,16640.0,53,16635.0,16660.0,16635.0,16660.0,338,74,16655,37,16660,19
2016-09-12 08:10:00,08:10:00,08:10:33,6878,7092,16655.0,38,16660.0,21,16655.0,16655.0,16645.0,16650.0,242,-118,16645,31,16650,38
2016-09-12 08:11:00,08:11:05,08:11:49,7134,7318,16645.0,59,16650.0,33,16650.0,16650.0,16645.0,16645.0,201,-19,16640,60,16645,21
2016-09-12 08:12:00,08:12:00,08:12:53,7329,7576,16640.0,56,16645.0,33,16645.0,16655.0,16645.0,16655.0,253,141,16655,10,16660,63
2016-09-12 08:13:00,08:13:04,08:13:57,7598,7808,16655.0,31,16660.0,61,16655.0,16665.0,16655.0,16655.0,184,-48,16655,46,16660,32
2016-09-12 08:14:00,08:14:03,08:14:58,7819,7937,16655.0,53,16660.0,16,16660.0,16660.0,16655.0,16655.0,113,5,16655,53,16660,63
2016-09-12 08:15:00,08:15:03,08:15:58,7948,8313,16655.0,33,16660.0,74,16655.0,16665.0,16650.0,16665.0,549,199,16660,39,16665,28
2016-09-12 08:16:00,08:16:00,08:16:59,8320,8580,16660.0,47,16665.0,12,16665.0,16670.0,16660.0,16660.0,340,122,16655,71,16660,1
2016-09-12 08:17:00,08:17:01,08:17:24,8585,8628,16655.0,71,16660.0,11,16660.0,16660.0,16660.0,16660.0,18,18,16655,56,16660,21
2016-09-12 08:18:00,08:18:00,08:18:58,8659,8764,16655.0,46,16660.0,30,16660.0,16660.0,16655.0,16655.0,84,-4,16655,48,16660,28
2016-09-12 08:19:00,08:19:00,08:19:58,8769,9027,16655.0,50,16660.0,22,16655.0,16655.0,16650.0,16650.0,337,-217,16650,17,16655,71
2016-09-12 08:20:00,08:20:09,08:20:55,9038,9218,16650.0,45,16655.0,74,16650.0,16655.0,16645.0,16650.0,287,89,16645,45,16650,46
2016-09-12 08:21:00,08:21:00,08:21:53,9227,9403,16645.0,45,16650.0,47,16645.0,16655.0,16645.0,16655.0,259,-11,16650,22,16655,51
2016-09-12 08:22:00,08:22:00,08:22:51,9420,9620,16650.0,27,16655.0,58,16650.0,16655.0,16645.0,16655.0,171,6,16650,43,16660,51
2016-09-12 08:23:00,08:23:01,08:23:54,9639,9768,16655.0,10,16660.0,46,16655.0,16660.0,16655.0,16660.0,126,10,16655,52,16660,7
2016-09-12 08:24:00,08:24:02,08:24:58,9789,9946,16655.0,52,16660.0,49,16655.0,16655.0,16650.0,16650.0,132,-74,16650,51,16655,25
2016-09-12 08:25:00,08:25:00,08:25:49,9949,10099,16650.0,51,16655.0,25,16655.0,16655.0,16650.0,16650.0,146,10,16650,38,16655,32
2016-09-12 08:26:00,08:26:07,08:26:55,10126,10278,16650.0,44,16655.0,42,16650.0,16655.0,16650.0,16650.0,151,-47,16650,4,16655,91
2016-09-12 08:27:00,08:27:00,08:27:58,10285,10391,16650.0,2,16655.0,91,16650.0,16655.0,16645.0,16655.0,108,42,16650,56,16655,9
2016-09-12 08:28:00,08:28:00,08:28:55,10400,10522,16650.0,50,16655.0,26,16650.0,16660.0,16650.0,16655.0,61,25,16650,52,16655,45
2016-09-12 08:29:00,08:29:11,08:29:35,10531,10557,16650.0,53,16655.0,45,16650.0,16650.0,16650.0,16650.0,6,-6,16650,31,16655,62
2016-09-12 08:30:00,08:30:03,08:30:47,10599,10756,16650.0,44,16655.0,65,16655.0,16655.0,16650.0,16655.0,196,63,16655,35,16660,82
2016-09-12 08:31:00,08:31:24,08:31:55,10788,10814,16655.0,34,16660.0,88,16655.0,16655.0,16655.0,16655.0,7,-7,16655,19,16660,84
2016-09-12 08:32:00,08:32:03,08:32:57,10816,10953,16655.0,19,16660.0,85,16660.0,16660.0,16650.0,16655.0,134,4,16655,5,16660,87
2016-09-12 08:33:00,08:33:06,08:33:59,10963,11040,16655.0,22,16660.0,86,16655.0,16660.0,16650.0,16650.0,67,-27,16650,18,16655,46
2016-09-12 08:34:00,08:34:11,08:34:41,11065,11143,16650.0,41,16655.0,41,16650.0,16655.0,16650.0,16655.0,50,10,16655,18,16660,83
2016-09-12 08:35:00,08:35:04,08:35:44,11154,11202,16655.0,22,16660.0,85,16655.0,16660.0,16655.0,16655.0,38,-12,16655,28,16660,59
2016-09-12 08:36:00,08:36:35,08:36:57,11260,11283,16655.0,42,16660.0,67,16660.0,16660.0,16655.0,16655.0,22,-2,16655,18,16660,62
2016-09-12 08:37:00,08:37:06,08:37:56,11287,11434,16655.0,25,16660.0,65,16660.0,16660.0,16650.0,16655.0,156,76,16650,45,16655,21
2016-09-12 08:38:00,08:38:02,08:38:56,11445,11603,16650.0,39,16655.0,39,16655.0,16655.0,16645.0,16655.0,210,70,16650,29,16655,53
2016-09-12 08:39:00,08:39:33,08:39:59,11652,11799,16650.0,43,16655.0,51,16655.0,16660.0,16650.0,16655.0,276,260,16655,17,16660,35
2016-09-12 08:40:00,08:40:00,08:40:59,11804,12010,16655.0,12,16660.0,59,16655.0,16665.0,16655.0,16660.0,228,132,16660,9,16665,61
2016-09-12 08:41:00,08:41:01,08:41:38,12017,12108,16660.0,7,16665.0,67,16660.0,16665.0,16660.0,16665.0,119,99,16660,44,16670,49
2016-09-12 08:42:00,08:42:10,08:42:45,12142,12294,16660.0,66,16665.0,16,16665.0,16670.0,16665.0,16670.0,204,50,16665,32,16670,71
2016-09-12 08:43:00,08:43:08,08:43:49,12327,12400,16665.0,18,16670.0,71,16665.0,16670.0,16665.0,16665.0,19,1,16665,53,16670,49
2016-09-12 08:44:00,08:44:07,08:44:49,12438,12544,16665.0,71,16670.0,31,16670.0,16670.0,16665.0,16670.0,47,45,16665,62,16670,3
2016-09-12 08:45:00,08:45:19,08:45:48,12582,12708,16665.0,53,16670.0,38,16665.0,16665.0,16660.0,16660.0,169,-129,16660,18,16665,92
2016-09-12 08:46:00,08:46:01,08:46:46,12720,12775,16660.0,14,16665.0,94,16660.0,16660.0,16660.0,16660.0,29,-29,16660,40,16665,68
2016-09-12 08:47:00,08:47:01,08:47:33,12788,12872,16660.0,29,16665.0,80,16660.0,16665.0,16660.0,16665.0,123,13,16660,50,16665,12
2016-09-12 08:48:00,08:48:15,08:48:52,12922,12983,16660.0,43,16665.0,102,16665.0,16665.0,16660.0,16665.0,26,16,16660,55,16665,79
2016-09-12 08:49:00,08:49:01,08:49:46,12988,13060,16660.0,59,16665.0,79,16665.0,16665.0,16660.0,16660.0,48,44,16660,27,16665,63
2016-09-12 08:50:00,08:50:01,08:50:59,13076,13271,16660.0,33,16665.0,92,16660.0,16665.0,16655.0,16660.0,257,-22,16655,53,16665,112
2016-09-12 08:51:00,08:51:00,08:51:57,13275,13405,16655.0,51,16665.0,112,16660.0,16665.0,16660.0,16660.0,122,64,16660,27,16665,85
2016-09-12 08:52:00,08:52:06,08:52:47,13408,13512,16660.0,29,16665.0,83,16660.0,16660.0,16660.0,16660.0,91,-91,16660,20,16665,106
2016-09-12 08:53:00,08:53:02,08:53:39,13528,13654,16660.0,27,16665.0,105,16660.0,16660.0,16655.0,16660.0,148,40,16660,37,16665,78
2016-09-12 08:54:00,08:54:02,08:54:59,13668,13826,16660.0,41,16665.0,91,16660.0,16665.0,16660.0,16665.0,218,82,16665,3,16665,4
2016-09-12 08:55:00,08:55:00,08:55:40,13828,13909,16660.0,67,16665.0,4,16665.0,16665.0,16660.0,16665.0,80,62,16660,65,16665,13
2016-09-12 08:56:00,08:56:03,08:56:32,13919,14010,16660.0,67,16665.0,37,16665.0,16665.0,16660.0,16660.0,121,33,16655,38,16660,31
2016-09-12 08:57:00,08:57:16,08:57:59,14054,14238,16655.0,61,16660.0,69,16655.0,16660.0,16655.0,16655.0,203,-159,16655,2,16660,116
2016-09-12 08:58:00,08:58:03,08:58:53,14248,14337,16650.0,64,16655.0,27,16655.0,16655.0,16650.0,16655.0,124,56,16655,5,16660,95
2016-09-12 08:59:00,08:59:03,08:59:37,14358,14432,16655.0,19,16660.0,119,16655.0,16655.0,16650.0,16655.0,106,-102,16650,36,16655,48
2016-09-12 09:00:00,09:00:00,09:00:58,14454,14549,16650.0,54,16655.0,70,16655.0,16655.0,16650.0,16650.0,58,24,16650,65,16655,43
2016-09-12 09:01:00,09:01:04,09:01:51,14556,14690,16650.0,69,16655.0,43,16655.0,16655.0,16650.0,16655.0,175,-65,16650,15,16655,67
2016-09-12 09:02:00,09:02:02,09:02:30,14697,14812,16650.0,16,16655.0,75,16650.0,16650.0,16640.0,16640.0,86,-66,16640,48,16645,42
2016-09-12 09:03:00,09:03:00,09:03:59,14849,15066,16640.0,34,16645.0,66,16645.0,16645.0,16635.0,16635.0,202,-166,16635,14,16640,60
2016-09-12 09:04:00,09:04:00,09:04:54,15071,15256,16635.0,11,16640.0,60,16640.0,16640.0,16630.0,16630.0,166,-132,16630,17,16635,57
2016-09-12 09:05:00,09:05:02,09:05:58,15265,15398,16630.0,99,16635.0,69,16630.0,16635.0,16630.0,16630.0,167,-165,16630,6,16635,60
2016-09-12 09:06:00,09:06:02,09:06:55,15409,15591,16630.0,26,16635.0,61,16630.0,16635.0,16625.0,16630.0,230,-59,16630,16,16635,65
2016-09-12 09:07:00,09:07:19,09:07:19,15614,15619,16630.0,29,16635.0,69,16630.0,16630.0,16630.0,16630.0,10,-10,16630,16,16635,70
2016-09-12 09:08:00,09:08:00,09:08:52,15648,15741,16630.0,22,16635.0,71,16630.0,16635.0,16630.0,16635.0,89,13,16635,46,16640,54
2016-09-12 09:09:00,09:09:04,09:09:59,15760,15817,16635.0,57,16640.0,65,16640.0,16640.0,16640.0,16640.0,13,13,16635,53,16640,60
2016-09-12 09:10:00,09:10:01,09:10:47,15820,15870,16635.0,53,16640.0,60,16640.0,16640.0,16640.0,16640.0,16,16,16635,56,16640,45
2016-09-12 09:11:00,09:11:04,09:11:59,15891,15949,16635.0,53,16640.0,48,16640.0,16640.0,16635.0,16640.0,8,2,16635,61,16640,51
2016-09-12 09:12:00,09:12:09,09:12:46,15957,16099,16635.0,63,16640.0,52,16640.0,16640.0,16635.0,16635.0,190,-52,16635,11,16640,62
2016-09-12 09:13:00,09:13:13,09:13:59,16120,16264,16635.0,18,16640.0,63,16635.0,16635.0,16625.0,16625.0,124,-90,16625,6,16630,56
2016-09-12 09:14:00,09:14:00,09:14:53,16266,16384,16625.0,6,16630.0,57,16625.0,16625.0,16625.0,16625.0,118,-118,16625,7,16630,63
2016-09-12 09:15:00,09:15:12,09:15:49,16409,16590,16625.0,17,16630.0,65,16630.0,16630.0,16625.0,16625.0,229,21,16625,10,16630,72
2016-09-12 09:16:00,09:16:05,09:16:59,16614,16757,16625.0,17,16630.0,73,16625.0,16635.0,16625.0,16630.0,154,58,16625,29,16630,33
2016-09-12 09:17:00,09:17:01,09:17:56,16764,16899,16625.0,37,16630.0,27,16625.0,16630.0,16625.0,16630.0,109,62,16630,46,16635,48
2016-09-12 09:18:00,09:18:00,09:18:20,16911,16986,16630.0,54,16635.0,45,16630.0,16640.0,16630.0,16640.0,68,44,16635,73,16640,45
2016-09-12 09:19:00,09:19:20,09:19:46,17020,17066,16635.0,86,16640.0,56,16640.0,16640.0,16640.0,16640.0,29,29,16635,73,16640,63
2016-09-12 09:20:00,09:20:00,09:20:59,17081,17186,16635.0,76,16640.0,55,16635.0,16640.0,16635.0,16640.0,31,17,16635,93,16640,45
2016-09-12 09:21:00,09:21:04,09:21:52,17194,17327,16635.0,88,16640.0,60,16640.0,16640.0,16635.0,16640.0,207,63,16630,76,16640,47
2016-09-12 09:22:00,09:22:31,09:22:58,17388,17464,16630.0,78,16635.0,29,16630.0,16635.0,16630.0,16630.0,70,-60,16630,21,16635,52
2016-09-12 09:23:00,09:23:15,09:23:34,17488,17554,16630.0,38,16635.0,42,16635.0,16635.0,16635.0,16635.0,60,32,16630,41,16635,15
2016-09-12 09:24:00,09:24:00,09:24:26,17597,17654,16630.0,42,16635.0,29,16630.0,16630.0,16630.0,16630.0,60,-60,16630,11,16635,58
2016-09-12 09:25:00,09:25:30,09:25:59,17736,17765,16630.0,51,16635.0,41,16635.0,16635.0,16635.0,16635.0,20,20,16630,58,16635,25
2016-09-12 09:26:00,09:26:00,09:26:54,17770,17879,16630.0,67,16635.0,24,16635.0,16635.0,16630.0,16630.0,51,17,16630,10,16635,39
2016-09-12 09:27:00,09:27:13,09:27:41,17898,17934,16630.0,14,16635.0,50,16635.0,16635.0,16635.0,16635.0,2,2,16630,32,16635,48
2016-09-12 09:28:00,09:28:08,09:28:08,17955,17956,16630.0,35,16635.0,45,16635.0,16635.0,16635.0,16635.0,4,4,16630,29,16635,44
2016-09-12 09:29:00,09:29:07,09:29:29,18006,18061,16630.0,25,16635.0,49,16635.0,16635.0,16630.0,16630.0,40,-34,16630,3,16635,60
2016-09-12 09:30:00,09:30:00,09:30:41,18081,18266,16630.0,12,16635.0,67,16630.0,16630.0,16625.0,16630.0,205,-9,16625,56,16630,8
2016-09-12 09:31:00,09:31:05,09:31:49,18320,18438,16625.0,57,16630.0,28,16625.0,16630.0,16625.0,16630.0,54,-48,16625,58,16630,28
2016-09-12 09:32:00,09:32:15,09:32:52,18461,18566,16625.0,36,16630.0,56,16630.0,16630.0,16630.0,16630.0,84,38,16625,38,16630,55
2016-09-12 09:33:00,09:33:27,09:33:27,18624,18624,16625.0,56,16630.0,24,16625.0,16625.0,16625.0,16625.0,2,-2,16625,54,16630,25
2016-09-12 09:34:00,09:34:04,09:34:59,18669,19087,16625.0,41,16630.0,50,16625.0,16630.0,16610.0,16615.0,692,-263,16610,56,16615,3
2016-09-12 09:35:00,09:35:00,09:35:58,19092,19655,16610.0,57,16615.0,8,16615.0,16615.0,16580.0,16585.0,976,-515,16585,22,16590,94
2016-09-12 09:36:00,09:36:04,09:36:59,19673,20185,16585.0,28,16590.0,104,16590.0,16595.0,16570.0,16575.0,905,-281,16575,11,16580,181
2016-09-12 09:37:00,09:37:05,09:37:54,20202,20480,16575.0,38,16580.0,181,16580.0,16590.0,16575.0,16585.0,572,300,16585,9,16590,86
2016-09-12 09:38:00,09:38:04,09:38:55,20495,20717,16585.0,17,16590.0,87,16585.0,16590.0,16580.0,16580.0,337,149,16580,64,16585,11
2016-09-12 09:39:00,09:39:02,09:39:59,20722,21031,16580.0,81,16585.0,11,16585.0,16590.0,16585.0,16590.0,418,-59,16590,8,16590,23
2016-09-12 09:40:00,09:40:03,09:40:57,21037,21196,16590.0,5,16595.0,77,16590.0,16590.0,16585.0,16585.0,135,-3,16585,48,16590,40
2016-09-12 09:41:00,09:41:07,09:41:58,21204,21286,16585.0,52,16590.0,43,16585.0,16590.0,16585.0,16585.0,17,3,16585,55,16590,36
2016-09-12 09:42:00,09:42:02,09:42:59,21289,21407,16585.0,55,16590.0,36,16590.0,16595.0,16590.0,16590.0,75,5,16590,55,16595,70
2016-09-12 09:43:00,09:43:01,09:43:47,21411,21512,16590.0,50,16595.0,70,16595.0,16595.0,16590.0,16595.0,102,16,16590,55,16595,24
2016-09-12 09:44:00,09:44:01,09:44:46,21526,21595,16590.0,51,16595.0,32,16595.0,16595.0,16590.0,16595.0,12,-2,16590,51,16595,38
2016-09-12 09:45:00,09:45:00,09:45:58,21626,21764,16590.0,53,16595.0,39,16590.0,16595.0,16590.0,16590.0,64,-56,16585,36,16590,51
2016-09-12 09:46:00,09:46:01,09:46:59,21776,21918,16585.0,18,16590.0,76,16585.0,16590.0,16580.0,16580.0,126,-122,16575,35,16580,46
2016-09-12 09:47:00,09:47:02,09:47:53,21928,22103,16575.0,23,16580.0,62,16575.0,16580.0,16575.0,16575.0,169,15,16575,35,16580,31
2016-09-12 09:48:00,09:48:03,09:48:59,22117,22228,16575.0,35,16580.0,36,16575.0,16580.0,16575.0,16575.0,77,-37,16575,19,16580,88
2016-09-12 09:49:00,09:49:00,09:49:55,22231,22310,16575.0,19,16580.0,88,16575.0,16575.0,16575.0,16575.0,125,-125,16575,21,16580,80
2016-09-12 09:50:00,09:50:00,09:50:59,22322,22478,16575.0,47,16580.0,82,16575.0,16575.0,16565.0,16565.0,128,-124,16565,38,16570,53
2016-09-12 09:51:00,09:51:02,09:51:41,22482,22586,16565.0,39,16570.0,53,16570.0,16570.0,16565.0,16570.0,74,-66,16565,43,16570,59
2016-09-12 09:52:00,09:52:09,09:52:47,22603,22647,16565.0,53,16570.0,45,16570.0,16570.0,16570.0,16570.0,15,15,16565,56,16570,34
2016-09-12 09:53:00,09:53:01,09:53:58,22661,22951,16565.0,57,16570.0,37,16570.0,16575.0,16560.0,16560.0,382,-246,16555,45,16560,12
2016-09-12 09:54:00,09:54:04,09:54:46,22963,23149,16555.0,25,16560.0,77,16555.0,16560.0,16555.0,16555.0,328,224,16555,50,16560,79
2016-09-12 09:55:00,09:55:00,09:55:59,23167,23508,16555.0,43,16560.0,88,16555.0,16555.0,16545.0,16545.0,596,-312,16545,110,16550,71
2016-09-12 09:56:00,09:56:01,09:56:59,23515,24008,16545.0,118,16550.0,58,16545.0,16550.0,16520.0,16525.0,804,-354,16520,40,16525,3
2016-09-12 09:57:00,09:57:00,09:57:54,24013,24576,16525.0,22,16530.0,76,16525.0,16525.0,16515.0,16515.0,1124,-396,16515,14,16520,62
2016-09-12 09:58:00,09:58:00,09:58:59,24597,25030,16515.0,58,16520.0,79,16515.0,16535.0,16515.0,16530.0,793,340,16525,45,16530,16
2016-09-12 09:59:00,09:59:00,09:59:42,25033,25202,16525.0,45,16530.0,16,16530.0,16530.0,16530.0,16530.0,163,66,16530,3,16535,99
2016-09-12 10:00:00,10:00:03,10:00:48,25235,25489,16530.0,35,16535.0,98,16530.0,16535.0,16525.0,16530.0,342,-3,16525,35,16530,32
2016-09-12 10:01:00,10:01:03,10:01:45,25505,25584,16525.0,44,16530.0,98,16525.0,16530.0,16525.0,16525.0,66,-64,16525,25,16530,90
2016-09-12 10:02:00,10:02:03,10:02:38,25602,25863,16525.0,32,16530.0,107,16525.0,16535.0,16525.0,16530.0,379,118,16530,6,16535,62
2016-09-12 10:03:00,10:03:04,10:03:50,25897,26081,16530.0,31,16535.0,54,16530.0,16540.0,16530.0,16540.0,180,-22,16535,49,16540,41
2016-09-12 10:04:00,10:04:02,10:04:52,26101,26248,16535.0,17,16540.0,52,16540.0,16545.0,16535.0,16545.0,128,46,16540,54,16545,31
2016-09-12 10:05:00,10:05:00,10:05:58,26262,26428,16540.0,24,16545.0,57,16540.0,16545.0,16535.0,16545.0,119,67,16540,67,16545,50
2016-09-12 10:06:00,10:06:15,10:06:52,26459,26705,16540.0,70,16545.0,60,16540.0,16550.0,16540.0,16545.0,313,117,16545,6,16550,68
2016-09-12 10:07:00,10:07:01,10:07:50,26717,26818,16545.0,17,16550.0,75,16545.0,16545.0,16545.0,16545.0,98,74,16540,59,16545,9
2016-09-12 10:08:00,10:08:04,10:08:50,26832,26989,16540.0,53,16545.0,18,16545.0,16550.0,16545.0,16550.0,167,23,16550,39,16555,57
2016-09-12 10:09:00,10:09:02,10:09:42,27010,27196,16550.0,53,16555.0,45,16555.0,16565.0,16555.0,16565.0,235,72,16560,34,16565,37
2016-09-12 10:10:00,10:10:03,10:10:59,27234,27439,16560.0,26,16565.0,51,16560.0,16560.0,16560.0,16560.0,276,-34,16560,8,16565,46
2016-09-12 10:11:00,10:11:20,10:11:47,27470,27574,16560.0,82,16565.0,29,16565.0,16565.0,16565.0,16565.0,162,60,16565,4,16570,49
2016-09-12 10:12:00,10:12:05,10:12:55,27604,27920,16560.0,70,16565.0,27,16560.0,16570.0,16555.0,16570.0,482,56,16565,47,16570,15
2016-09-12 10:13:00,10:13:11,10:13:57,27944,28082,16565.0,53,16570.0,25,16570.0,16570.0,16560.0,16565.0,129,6,16560,52,16565,20
2016-09-12 10:14:00,10:14:07,10:14:52,28099,28204,16560.0,52,16565.0,31,16565.0,16565.0,16565.0,16565.0,77,61,16560,108,16565,15
2016-09-12 10:15:00,10:15:23,10:15:54,28231,28281,16560.0,106,16565.0,30,16565.0,16565.0,16555.0,16555.0,48,-32,16555,34,16560,35
2016-09-12 10:16:00,10:16:07,10:16:50,28300,28440,16555.0,51,16560.0,39,16560.0,16560.0,16560.0,16560.0,170,-90,16560,13,16565,41
2016-09-12 10:17:00,10:17:02,10:17:57,28456,28615,16560.0,18,16565.0,42,16560.0,16560.0,16555.0,16555.0,145,-145,16550,49,16560,50
2016-09-12 10:18:00,10:18:03,10:18:52,28628,28900,16555.0,23,16560.0,54,16555.0,16560.0,16545.0,16555.0,277,-81,16555,6,16560,42
2016-09-12 10:19:00,10:19:03,10:19:59,28917,29023,16555.0,24,16560.0,43,16555.0,16555.0,16550.0,16550.0,61,-19,16550,53,16555,20
2016-09-12 10:20:00,10:20:04,10:20:45,29030,29256,16550.0,57,16555.0,20,16550.0,16555.0,16550.0,16555.0,268,2,16550,109,16555,19
2016-09-12 10:21:00,10:21:04,10:21:45,29276,29442,16550.0,116,16555.0,34,16550.0,16550.0,16540.0,16540.0,199,-137,16540,39,16545,92
2016-09-12 10:22:00,10:22:13,10:22:59,29473,29593,16540.0,63,16545.0,86,16545.0,16550.0,16545.0,16545.0,107,45,16545,60,16555,22
2016-09-12 10:23:00,10:23:00,10:23:58,29595,29732,16545.0,60,16550.0,27,16550.0,16555.0,16550.0,16555.0,120,2,16550,47,16555,49
2016-09-12 10:24:00,10:24:12,10:24:57,29752,29940,16550.0,53,16555.0,43,16555.0,16565.0,16550.0,16565.0,227,177,16560,24,16565,40
2016-09-12 10:25:00,10:25:00,10:25:59,29946,30159,16560.0,17,16565.0,44,16560.0,16565.0,16555.0,16565.0,157,85,16560,50,16565,19
2016-09-12 10:26:00,10:26:04,10:26:52,30168,30477,16560.0,44,16565.0,24,16565.0,16590.0,16565.0,16585.0,596,284,16580,68,16585,6
2016-09-12 10:27:00,10:27:03,10:27:59,30500,30706,16580.0,71,16585.0,15,16585.0,16585.0,16580.0,16580.0,163,-23,16575,90,16580,13
2016-09-12 10:28:00,10:28:05,10:28:56,30721,31095,16575.0,88,16580.0,34,16575.0,16575.0,16570.0,16570.0,704,-316,16565,79,16575,193
2016-09-12 10:29:00,10:29:01,10:29:58,31107,31348,16570.0,12,16575.0,193,16570.0,16580.0,16565.0,16580.0,242,74,16575,73,16580,38
2016-09-12 10:30:00,10:30:03,10:30:54,31360,31545,16575.0,78,16580.0,47,16575.0,16585.0,16575.0,16580.0,233,131,16580,74,16585,27
2016-09-12 10:31:00,10:31:02,10:31:50,31557,31677,16580.0,27,16585.0,34,16580.0,16585.0,16575.0,16580.0,181,-67,16575,39,16580,28
2016-09-12 10:32:00,10:32:29,10:32:59,31707,31802,16575.0,36,16580.0,38,16575.0,16575.0,16570.0,16570.0,123,-29,16565,51,16570,5
2016-09-12 10:33:00,10:33:02,10:33:23,31812,31848,16565.0,51,16570.0,9,16565.0,16570.0,16565.0,16570.0,46,-24,16565,86,16570,19
2016-09-12 10:34:00,10:34:45,10:34:48,31892,31953,16565.0,82,16570.0,19,16570.0,16575.0,16570.0,16570.0,103,-17,16570,19,16575,39
2016-09-12 10:35:00,10:35:04,10:35:54,31973,32075,16570.0,15,16575.0,38,16570.0,16580.0,16570.0,16580.0,116,24,16575,34,16585,43
2016-09-12 10:36:00,10:36:00,10:36:50,32080,32129,16580.0,1,16585.0,43,16580.0,16580.0,16575.0,16580.0,28,14,16575,44,16580,10
2016-09-12 10:37:00,10:37:00,10:37:45,32142,32218,16575.0,45,16580.0,9,16580.0,16580.0,16580.0,16580.0,50,6,16580,26,16585,31
2016-09-12 10:38:00,10:38:28,10:38:49,32249,32356,16580.0,39,16585.0,11,16580.0,16590.0,16580.0,16580.0,125,-23,16580,11,16585,35
2016-09-12 10:39:00,10:39:00,10:39:43,32366,32444,16580.0,31,16585.0,29,16585.0,16590.0,16585.0,16585.0,87,76,16585,32,16590,14
2016-09-12 10:40:00,10:40:41,10:40:41,32490,32521,16585.0,36,16590.0,33,16585.0,16585.0,16585.0,16585.0,56,-56,16585,21,16590,35
2016-09-12 10:41:00,10:41:38,10:41:54,32544,32604,16585.0,33,16590.0,30,16590.0,16590.0,16585.0,16585.0,62,2,16585,3,16585,2
2016-09-12 10:42:00,10:42:00,10:42:45,32608,32688,16585.0,3,16590.0,41,16585.0,16590.0,16585.0,16585.0,63,-9,16585,4,16590,47
2016-09-12 10:43:00,10:43:03,10:43:35,32704,32755,16580.0,326,16585.0,18,16580.0,16585.0,16580.0,16585.0,67,-17,16580,275,16585,43
2016-09-12 10:44:00,10:44:01,10:44:58,32776,32843,16580.0,275,16585.0,33,16585.0,16585.0,16580.0,16580.0,24,-12,16580,258,16585,39
2016-09-12 10:45:00,10:45:03,10:45:57,32853,32900,16580.0,260,16585.0,47,16580.0,16585.0,16580.0,16580.0,48,-40,16580,212,16585,71
2016-09-12 10:46:00,10:46:01,10:46:48,32906,33105,16580.0,212,16585.0,75,16585.0,16585.0,16580.0,16580.0,533,13,16580,10,16585,41
2016-09-12 10:47:00,10:47:03,10:47:43,33117,33238,16580.0,23,16585.0,35,16585.0,16585.0,16575.0,16575.0,120,-50,16575,17,16580,34
2016-09-12 10:48:00,10:48:25,10:48:53,33263,33324,16575.0,47,16580.0,11,16580.0,16580.0,16575.0,16580.0,62,-8,16575,32,16580,13
2016-09-12 10:49:00,10:49:12,10:49:29,33338,33383,16575.0,19,16580.0,38,16575.0,16575.0,16575.0,16575.0,46,-32,16570,46,16580,44
2016-09-12 10:50:00,10:50:05,10:50:22,33392,33463,16570.0,49,16575.0,6,16570.0,16575.0,16570.0,16570.0,114,-112,16565,41,16570,3
2016-09-12 10:51:00,10:51:00,10:51:50,33479,33546,16570.0,55,16575.0,25,16575.0,16575.0,16575.0,16575.0,62,-10,16570,34,16575,15
2016-09-12 10:52:00,10:52:13,10:52:45,33556,33604,16570.0,34,16575.0,13,16575.0,16580.0,16575.0,16580.0,35,5,16575,40,16580,26
2016-09-12 10:53:00,10:53:00,10:53:45,33610,33661,16575.0,39,16580.0,28,16575.0,16575.0,16570.0,16570.0,42,-42,16570,37,16575,19
2016-09-12 10:54:00,10:54:07,10:54:40,33677,33707,16570.0,40,16575.0,31,16575.0,16575.0,16570.0,16570.0,46,-40,16570,8,16575,39
2016-09-12 10:55:00,10:55:51,10:55:51,33738,33762,16570.0,31,16575.0,29,16575.0,16575.0,16575.0,16575.0,36,36,16575,11,16580,29
2016-09-12 10:56:00,10:56:04,10:56:39,33783,33876,16575.0,24,16580.0,23,16580.0,16580.0,16575.0,16580.0,90,18,16575,40,16585,39
2016-09-12 10:57:00,10:57:00,10:57:00,0,0,0.0,0,0.0,0,16580.0,16580.0,16580.0,16580.0,0,0,0,0,0,0
2016-09-12 10:58:00,10:58:04,10:58:53,33946,34084,16580.0,40,16585.0,31,16580.0,16585.0,16580.0,16580.0,147,-85,16575,37,16580,30
2016-09-12 10:59:00,10:59:31,10:59:51,34106,34133,16575.0,40,16580.0,28,16580.0,16580.0,16580.0,16580.0,36,16,16580,23,16585,42
2016-09-12 11:00:00,11:00:03,11:00:34,34139,34199,16580.0,17,16585.0,42,16580.0,16580.0,16575.0,16575.0,80,-68,16570,11,16575,42
2016-09-12 11:01:00,11:01:02,11:01:59,34223,34278,16570.0,31,16575.0,39,16575.0,16575.0,16575.0,16575.0,35,35,16570,36,16575,27
2016-09-12 11:02:00,11:02:03,11:02:37,34284,34336,16570.0,34,16575.0,28,16575.0,16580.0,16575.0,16575.0,32,16,16570,38,16575,9
2016-09-12 11:03:00,11:03:02,11:03:57,34353,34412,16570.0,43,16575.0,9,16575.0,16580.0,16575.0,16575.0,24,0,16575,11,16580,40
2016-09-12 11:04:00,11:04:01,11:04:59,34417,34455,16575.0,4,16580.0,40,16575.0,16575.0,16575.0,16575.0,16,8,16570,43,16575,5
2016-09-12 11:05:00,11:05:05,11:05:42,34463,34525,16570.0,46,16575.0,12,16575.0,16575.0,16570.0,16570.0,61,-21,16565,36,16570,5
2016-09-12 11:06:00,11:06:36,11:06:36,34552,34581,16565.0,30,16570.0,27,16565.0,16565.0,16565.0,16565.0,40,-27,16565,8,16570,34
2016-09-12 11:07:00,11:07:19,11:07:38,34611,34645,16565.0,37,16570.0,20,16570.0,16570.0,16570.0,16570.0,37,19,16565,44,16570,2
2016-09-12 11:08:00,11:08:41,11:08:42,34685,34704,16565.0,44,16570.0,11,16570.0,16570.0,16570.0,16570.0,26,26,16565,38,16570,8
2016-09-12 11:09:00,11:09:48,11:09:48,34738,34751,16565.0,38,16570.0,26,16565.0,16565.0,16565.0,16565.0,26,-26,16565,3,16570,33
2016-09-12 11:10:00,11:10:37,11:10:40,34778,34794,16565.0,43,16570.0,11,16570.0,16570.0,16570.0,16570.0,18,4,16565,34,16570,30
2016-09-12 11:11:00,11:11:08,11:11:08,34808,34823,16565.0,42,16570.0,35,16565.0,16565.0,16565.0,16565.0,34,-34,16560,30,16570,43
2016-09-12 11:12:00,11:12:57,11:12:57,34868,34872,16565.0,27,16570.0,32,16565.0,16565.0,16565.0,16565.0,14,-14,16560,28,16565,6
2016-09-12 11:13:00,11:13:08,11:13:50,34884,34966,16560.0,32,16565.0,9,16565.0,16565.0,16555.0,16555.0,82,18,16555,9,16560,38
2016-09-12 11:14:00,11:14:09,11:14:52,34976,35123,16555.0,27,16560.0,46,16555.0,16555.0,16545.0,16550.0,169,-51,16545,51,16555,43
2016-09-12 11:15:00,11:15:04,11:15:11,35150,35187,16545.0,61,16550.0,16,16550.0,16550.0,16550.0,16550.0,40,-10,16550,4,16555,46
2016-09-12 11:16:00,11:16:04,11:16:52,35227,35286,16550.0,29,16555.0,41,16550.0,16555.0,16550.0,16555.0,63,-19,16550,29,16555,16
2016-09-12 11:17:00,11:17:00,11:17:48,35293,35373,16550.0,30,16555.0,9,16555.0,16555.0,16555.0,16555.0,53,13,16555,20,16560,38
2016-09-12 11:18:00,11:18:00,11:18:00,0,0,0.0,0,0.0,0,16555.0,16555.0,16555.0,16555.0,0,0,0,0,0,0
2016-09-12 11:19:00,11:19:02,11:19:39,35421,35468,16555.0,22,16560.0,38,16555.0,16560.0,16555.0,16560.0,30,-14,16555,29,16560,27
2016-09-12 11:20:00,11:20:01,11:20:06,35475,35480,16555.0,30,16560.0,28,16555.0,16560.0,16555.0,16560.0,6,2,16555,23,16560,27
2016-09-12 11:21:00,11:21:02,11:21:59,35532,35626,16555.0,72,16560.0,36,16560.0,16560.0,16550.0,16550.0,148,-56,16545,39,16550,4
2016-09-12 11:22:00,11:22:28,11:22:28,35649,35652,16545.0,51,16550.0,12,16550.0,16550.0,16550.0,16550.0,9,9,16550,24,16555,34
2016-09-12 11:23:00,11:23:02,11:23:02,35681,35683,16550.0,36,16555.0,27,16555.0,16555.0,16555.0,16555.0,3,3,16550,34,16555,25
2016-09-12 11:24:00,11:24:07,11:24:07,35708,35710,16550.0,41,16555.0,34,16555.0,16555.0,16555.0,16555.0,4,4,16550,39,16555,31
2016-09-12 11:25:00,11:25:01,11:25:28,35730,35793,16550.0,43,16555.0,17,16550.0,16550.0,16550.0,16550.0,74,-72,16550,29,16555,43
2016-09-12 11:26:00,11:26:09,11:26:35,35816,35852,16550.0,26,16555.0,45,16550.0,16555.0,16550.0,16550.0,48,-32,16550,17,16555,48
2016-09-12 11:27:00,11:27:10,11:27:57,35865,35914,16550.0,30,16555.0,44,16555.0,16560.0,16555.0,16560.0,35,35,16560,38,16565,20
2016-09-12 11:28:00,11:28:08,11:28:56,35927,36053,16560.0,38,16565.0,33,16565.0,16570.0,16565.0,16570.0,103,25,16570,26,16575,26
2016-09-12 11:29:00,11:29:07,11:29:53,36070,36150,16570.0,39,16575.0,8,16575.0,16575.0,16570.0,16570.0,65,-41,16570,22,16575,41
2016-09-12 11:30:00,11:30:00,11:30:54,36157,36412,16570.0,30,16575.0,42,16575.0,16575.0,16565.0,16565.0,306,-92,16560,58,16565,1
2016-09-12 11:31:00,11:31:07,11:31:19,36432,36443,16560.0,62,16565.0,9,16565.0,16565.0,16565.0,16565.0,7,7,16560,63,16565,4
2016-09-12 11:32:00,11:32:02,11:32:42,36478,36567,16560.0,74,16565.0,13,16565.0,16570.0,16565.0,16565.0,38,0,16560,71,16565,5
2016-09-12 11:33:00,11:33:02,11:33:48,36584,36780,16560.0,65,16565.0,15,16565.0,16565.0,16550.0,16550.0,281,-181,16545,48,16555,45
2016-09-12 11:34:00,11:34:05,11:34:55,36812,36929,16550.0,17,16555.0,46,16550.0,16550.0,16550.0,16550.0,122,12,16545,52,16550,31
2016-09-12 11:35:00,11:35:07,11:35:52,36947,37047,16545.0,47,16550.0,33,16550.0,16550.0,16540.0,16540.0,102,-100,16535,41,16540,6
2016-09-12 11:36:00,11:36:15,11:36:53,37074,37317,16535.0,43,16540.0,50,16540.0,16540.0,16530.0,16535.0,462,-80,16535,17,16540,39
2016-09-12 11:37:00,11:37:01,11:37:59,37333,37591,16535.0,16,16540.0,42,16535.0,16550.0,16535.0,16540.0,294,-150,16535,25,16540,38
2016-09-12 11:38:00,11:38:03,11:38:55,37604,37742,16535.0,18,16540.0,47,16535.0,16540.0,16535.0,16540.0,124,-64,16535,27,16540,24
2016-09-12 11:39:00,11:39:05,11:39:59,37758,37950,16535.0,29,16540.0,19,16540.0,16540.0,16535.0,16540.0,231,-52,16535,38,16540,27
2016-09-12 11:40:00,11:40:53,11:40:59,37984,38021,16535.0,40,16540.0,30,16535.0,16535.0,16535.0,16535.0,31,-31,16530,48,16535,8
2016-09-12 11:41:00,11:41:10,11:41:13,38035,38043,16530.0,56,16535.0,4,16535.0,16535.0,16535.0,16535.0,6,2,16535,47,16540,13
2016-09-12 11:42:00,11:42:03,11:42:56,38083,38182,16535.0,38,16540.0,58,16540.0,16540.0,16530.0,16530.0,91,-9,16525,45,16530,8
2016-09-12 11:43:00,11:43:29,11:43:52,38216,38353,16525.0,53,16530.0,34,16530.0,16530.0,16530.0,16530.0,164,-78,16525,29,16530,39
2016-09-12 11:44:00,11:44:00,11:44:00,0,0,0.0,0,0.0,0,16530.0,16530.0,16530.0,16530.0,0,0,0,0,0,0
2016-09-12 11:45:00,11:45:04,11:45:55,38425,38481,16525.0,43,16530.0,39,16530.0,16530.0,16525.0,16525.0,32,-24,16525,19,16530,39
2016-09-12 11:46:00,11:46:12,11:46:57,38507,38760,16525.0,12,16530.0,45,16525.0,16525.0,16510.0,16510.0,301,-195,16510,9,16515,51
2016-09-12 11:47:00,11:47:01,11:47:58,38772,39004,16510.0,63,16515.0,29,16515.0,16515.0,16510.0,16515.0,251,-53,16510,30,16515,45
2016-09-12 11:48:00,11:48:07,11:48:57,39018,39169,16510.0,48,16515.0,34,16515.0,16520.0,16515.0,16515.0,151,-35,16515,6,16520,67
2016-09-12 11:49:00,11:49:04,11:49:51,39186,39314,16515.0,28,16520.0,57,16515.0,16520.0,16515.0,16515.0,129,-51,16515,20,16520,52
2016-09-12 11:50:00,11:50:02,11:50:44,39327,39405,16515.0,23,16520.0,53,16515.0,16525.0,16515.0,16525.0,41,25,16520,36,16525,36
2016-09-12 11:51:00,11:51:02,11:51:59,39418,39614,16520.0,47,16525.0,37,16520.0,16525.0,16520.0,16520.0,208,-88,16520,26,16525,76
2016-09-12 11:52:00,11:52:00,11:52:52,39617,39724,16520.0,26,16525.0,76,16520.0,16525.0,16515.0,16515.0,96,-36,16515,15,16520,61
2016-09-12 11:53:00,11:53:04,11:53:59,39745,39857,16515.0,33,16520.0,63,16515.0,16515.0,16510.0,16510.0,124,-22,16510,67,16515,89
2016-09-12 11:54:00,11:54:11,11:54:57,39864,40022,16510.0,72,16515.0,81,16515.0,16520.0,16515.0,16520.0,242,36,16520,16,16525,56
2016-09-12 11:55:00,11:55:00,11:55:34,40027,40099,16520.0,25,16525.0,56,16520.0,16525.0,16520.0,16525.0,62,20,16520,54,16525,28
2016-09-12 11:56:00,11:56:07,11:56:54,40116,40247,16520.0,64,16525.0,37,16525.0,16535.0,16525.0,16530.0,225,61,16525,36,16530,76
2016-09-12 11:57:00,11:57:43,11:57:58,40302,40336,16525.0,71,16530.0,154,16530.0,16530.0,16525.0,16525.0,57,-53,16520,46,16525,57
2016-09-12 11:58:00,11:58:16,11:58:16,40363,40392,16520.0,34,16525.0,134,16525.0,16525.0,16525.0,16525.0,126,126,16525,51,16530,41
2016-09-12 11:59:00,11:59:03,11:59:15,40434,40444,16525.0,61,16530.0,79,16530.0,16530.0,16530.0,16530.0,4,4,16525,64,16530,68
2016-09-12 12:00:00,12:00:00,12:00:58,40472,40599,16525.0,56,16530.0,70,16525.0,16525.0,16525.0,16525.0,105,-91,16525,3,16525,10
2016-09-12 12:01:00,12:01:01,12:01:59,40601,40780,16525.0,3,16530.0,83,16525.0,16525.0,16515.0,16515.0,152,-52,16515,97,16520,40
2016-09-12 12:02:00,12:02:10,12:02:56,40799,40960,16515.0,101,16520.0,50,16515.0,16520.0,16510.0,16510.0,282,-174,16510,28,16515,37
2016-09-12 12:03:00,12:03:00,12:03:51,40968,41260,16510.0,33,16515.0,34,16510.0,16510.0,16500.0,16505.0,499,-151,16505,43,16510,82
2016-09-12 12:04:00,12:04:01,12:04:52,41267,41353,16505.0,32,16510.0,84,16505.0,16505.0,16505.0,16505.0,69,-69,16505,62,16510,77
2016-09-12 12:05:00,12:05:12,12:05:53,41368,41521,16505.0,84,16510.0,74,16505.0,16510.0,16500.0,16500.0,181,-49,16500,61,16505,39
2016-09-12 12:06:00,12:06:00,12:06:54,41535,41937,16500.0,71,16505.0,17,16505.0,16505.0,16480.0,16485.0,586,-294,16480,51,16485,30
2016-09-12 12:07:00,12:07:02,12:07:56,41951,42146,16480.0,67,16485.0,24,16485.0,16485.0,16480.0,16480.0,178,-68,16480,59,16485,210
2016-09-12 12:08:00,12:08:01,12:08:58,42158,42290,16480.0,66,16485.0,198,16480.0,16490.0,16480.0,16490.0,273,141,16485,60,16490,226
2016-09-12 12:09:00,12:09:00,12:09:03,42294,42295,16485.0,63,16490.0,228,16485.0,16490.0,16485.0,16490.0,4,2,16485,60,16490,225
2016-09-12 12:10:00,12:10:08,12:10:57,42339,42476,16485.0,69,16490.0,208,16490.0,16490.0,16480.0,16480.0,218,-208,16480,26,16485,115
2016-09-12 12:11:00,12:11:11,12:11:58,42486,42888,16480.0,26,16485.0,115,16480.0,16480.0,16455.0,16475.0,816,-362,16470,82,16475,74
2016-09-12 12:12:00,12:12:18,12:12:55,42914,43072,16470.0,89,16475.0,76,16475.0,16480.0,16475.0,16480.0,224,42,16480,63,16485,38
2016-09-12 12:13:00,12:13:03,12:13:23,43083,43137,16480.0,55,16485.0,72,16480.0,16480.0,16480.0,16480.0,109,-59,16480,22,16485,76
2016-09-12 12:14:00,12:14:08,12:14:47,43159,43288,16480.0,43,16485.0,78,16480.0,16485.0,16480.0,16485.0,161,11,16485,13,16490,68
2016-09-12 12:15:00,12:15:31,12:15:40,43340,43396,16485.0,30,16490.0,75,16490.0,16490.0,16490.0,16490.0,75,75,16485,70,16495,72
2016-09-12 12:16:00,12:16:03,12:16:48,43436,43564,16490.0,21,16495.0,65,16495.0,16495.0,16490.0,16495.0,145,85,16490,56,16495,11
2016-09-12 12:17:00,12:17:28,12:17:55,43598,43661,16490.0,70,16495.0,20,16495.0,16495.0,16495.0,16495.0,74,74,16490,59,16495,4
2016-09-12 12:18:00,12:18:05,12:18:45,43667,43729,16490.0,62,16495.0,6,16495.0,16500.0,16495.0,16500.0,53,21,16495,65,16500,104
2016-09-12 12:19:00,12:19:07,12:19:39,43748,43836,16495.0,61,16500.0,106,16495.0,16500.0,16495.0,16500.0,127,-94,16495,32,16500,85
2016-09-12 12:20:00,12:20:03,12:20:49,43852,43866,16495.0,48,16500.0,89,16495.0,16500.0,16495.0,16500.0,23,19,16495,53,16500,65
2016-09-12 12:21:00,12:21:05,12:21:57,43878,44015,16495.0,63,16500.0,66,16500.0,16505.0,16495.0,16505.0,300,284,16500,12,16505,105
2016-09-12 12:22:00,12:22:01,12:22:58,44021,44154,16500.0,39,16505.0,110,16500.0,16510.0,16500.0,16510.0,160,92,16505,78,16510,28
2016-09-12 12:23:00,12:23:18,12:23:58,44163,44265,16505.0,82,16510.0,29,16510.0,16515.0,16510.0,16515.0,120,97,16515,7,16520,56
2016-09-12 12:24:00,12:24:07,12:24:56,44288,44416,16515.0,38,16520.0,33,16520.0,16525.0,16520.0,16525.0,94,92,16520,80,16525,28
2016-09-12 12:25:00,12:25:05,12:25:50,44432,44572,16520.0,73,16525.0,34,16525.0,16525.0,16520.0,16525.0,109,-68,16520,32,16525,59
2016-09-12 12:26:00,12:26:30,12:26:48,44611,44684,16520.0,48,16525.0,49,16525.0,16525.0,16525.0,16525.0,99,99,16520,47,16525,1
2016-09-12 12:27:00,12:27:20,12:27:46,44710,44828,16520.0,15,16525.0,91,16520.0,16520.0,16515.0,16515.0,144,-138,16510,62,16520,65
2016-09-12 12:28:00,12:28:14,12:28:21,44845,44867,16515.0,13,16520.0,66,16515.0,16515.0,16510.0,16515.0,23,-21,16510,40,16515,78
2016-09-12 12:29:00,12:29:00,12:29:18,44897,44995,16510.0,51,16515.0,82,16510.0,16510.0,16505.0,16505.0,151,-151,16505,25,16510,48
2016-09-12 12:30:00,12:30:09,12:30:57,45042,45386,16505.0,39,16510.0,51,16510.0,16510.0,16485.0,16495.0,604,-299,16490,87,16495,17
2016-09-12 12:31:00,12:31:01,12:31:51,45389,45452,16490.0,111,16495.0,15,16490.0,16495.0,16490.0,16495.0,14,6,16495,45,16500,69
2016-09-12 12:32:00,12:32:09,12:32:45,45473,45533,16495.0,59,16500.0,68,16500.0,16505.0,16500.0,16505.0,34,34,16500,54,16505,32
2016-09-12 12:33:00,12:33:00,12:33:28,45545,45671,16500.0,59,16505.0,18,16505.0,16505.0,16500.0,16500.0,190,-65,16495,59,16500,18
2016-09-12 12:34:00,12:34:04,12:34:04,45695,45700,16495.0,62,16500.0,22,16500.0,16500.0,16500.0,16500.0,15,15,16500,18,16505,86
2016-09-12 12:35:00,12:35:06,12:35:45,45741,45777,16500.0,57,16505.0,72,16505.0,16505.0,16500.0,16505.0,11,9,16500,66,16505,41
2016-09-12 12:36:00,12:36:06,12:36:50,45790,45863,16500.0,51,16505.0,64,16505.0,16510.0,16505.0,16510.0,58,58,16505,60,16510,49
2016-09-12 12:37:00,12:37:00,12:37:44,45874,46030,16505.0,49,16510.0,57,16510.0,16520.0,16510.0,16520.0,201,145,16520,37,16525,85
2016-09-12 12:38:00,12:38:08,12:38:30,46058,46113,16520.0,69,16525.0,61,16525.0,16525.0,16525.0,16525.0,116,116,16520,46,16525,2
2016-09-12 12:39:00,12:39:07,12:39:49,46158,46330,16520.0,48,16525.0,102,16525.0,16530.0,16520.0,16520.0,291,35,16520,24,16525,50
2016-09-12 12:40:00,12:40:06,12:40:51,46347,46449,16520.0,40,16525.0,53,16520.0,16520.0,16510.0,16510.0,95,-95,16510,10,16515,51
2016-09-12 12:41:00,12:41:21,12:41:49,46478,46554,16510.0,21,16515.0,49,16510.0,16510.0,16505.0,16505.0,85,-85,16500,51,16505,40
2016-09-12 12:42:00,12:42:02,12:42:44,46574,46637,16500.0,38,16505.0,45,16500.0,16505.0,16500.0,16505.0,41,-1,16500,62,16505,17
2016-09-12 12:43:00,12:43:02,12:43:54,46650,46749,16500.0,62,16505.0,23,16505.0,16510.0,16505.0,16510.0,120,92,16505,74,16510,12
2016-09-12 12:44:00,12:44:08,12:44:09,46758,46760,16505.0,76,16510.0,11,16510.0,16510.0,16510.0,16510.0,2,2,16505,69,16510,9
2016-09-12 12:45:00,12:45:01,12:45:56,46793,46895,16505.0,64,16510.0,30,16510.0,16510.0,16505.0,16505.0,117,-101,16505,15,16510,47
2016-09-12 12:46:00,12:46:10,12:46:58,46910,46957,16505.0,29,16510.0,49,16510.0,16515.0,16505.0,16515.0,20,16,16510,41,16515,29
2016-09-12 12:47:00,12:47:01,12:47:10,46959,46974,16510.0,41,16515.0,32,16515.0,16515.0,16515.0,16515.0,5,5,16510,46,16515,39
2016-09-12 12:48:00,12:48:04,12:48:04,47012,47012,16510.0,52,16515.0,41,16515.0,16515.0,16515.0,16515.0,3,3,16510,45,16515,35
2016-09-12 12:49:00,12:49:08,12:49:25,47062,47073,16510.0,47,16515.0,39,16515.0,16515.0,16515.0,16515.0,6,6,16510,53,16515,37
2016-09-12 12:50:00,12:50:07,12:50:42,47097,47256,16510.0,58,16515.0,33,16515.0,16525.0,16515.0,16525.0,232,-44,16520,35,16525,35
2016-09-12 12:51:00,12:51:00,12:51:14,47268,47307,16520.0,47,16525.0,17,16525.0,16525.0,16525.0,16525.0,33,15,16525,23,16530,46
2016-09-12 12:52:00,12:52:08,12:52:37,47385,47451,16525.0,34,16530.0,47,16530.0,16530.0,16525.0,16530.0,41,-11,16525,53,16530,62
2016-09-12 12:53:00,12:53:09,12:53:09,47490,47492,16525.0,59,16530.0,62,16530.0,16530.0,16530.0,16530.0,4,4,16525,53,16530,65
2016-09-12 12:54:00,12:54:02,12:54:49,47533,47642,16525.0,52,16530.0,65,16530.0,16540.0,16530.0,16540.0,99,99,16535,30,16540,48
2016-09-12 12:55:00,12:55:08,12:55:49,47672,47777,16535.0,57,16540.0,39,16540.0,16540.0,16540.0,16540.0,106,-47,16540,4,16545,67
2016-09-12 12:56:00,12:56:00,12:56:00,0,0,0.0,0,0.0,0,16540.0,16540.0,16540.0,16540.0,0,0,0,0,0,0
2016-09-12 12:57:00,12:57:08,12:57:09,47851,47915,16540.0,36,16545.0,105,16545.0,16550.0,16545.0,16545.0,160,160,16545,9,16550,98
2016-09-12 12:58:00,12:58:00,12:58:55,47971,48066,16545.0,52,16550.0,93,16550.0,16550.0,16545.0,16550.0,35,-7,16545,60,16550,83
2016-09-12 12:59:00,12:59:04,12:59:55,48076,48244,16545.0,64,16550.0,84,16550.0,16550.0,16540.0,16540.0,260,-56,16535,67,16540,78
2016-09-12 13:00:00,13:00:00,13:00:53,48255,48440,16535.0,67,16540.0,85,16540.0,16540.0,16540.0,16540.0,171,51,16535,66,16540,42
2016-09-12 13:01:00,13:01:03,13:01:55,48460,48641,16535.0,77,16540.0,25,16540.0,16545.0,16540.0,16540.0,241,-59,16535,73,16540,14
2016-09-12 13:02:00,13:02:04,13:02:56,48661,48780,16535.0,63,16540.0,45,16540.0,16545.0,16535.0,16535.0,127,65,16535,75,16540,97
2016-09-12 13:03:00,13:03:35,13:03:58,48811,48850,16535.0,87,16540.0,97,16540.0,16545.0,16540.0,16545.0,97,97,16540,18,16545,58
2016-09-12 13:04:00,13:04:06,13:04:59,48867,48938,16540.0,83,16545.0,31,16545.0,16545.0,16545.0,16545.0,60,20,16540,86,16550,110
2016-09-12 13:05:00,13:05:01,13:05:57,48941,49026,16540.0,86,16550.0,110,16540.0,16545.0,16540.0,16545.0,67,-5,16540,96,16550,105
2016-09-12 13:06:00,13:06:08,13:06:32,49037,49066,16540.0,100,16545.0,5,16545.0,16545.0,16545.0,16545.0,90,60,16540,138,16545,12
2016-09-12 13:07:00,13:07:02,13:07:49,49091,49134,16540.0,137,16545.0,19,16545.0,16545.0,16545.0,16545.0,73,73,16540,98,16545,5
2016-09-12 13:08:00,13:08:00,13:08:58,49147,49200,16540.0,115,16545.0,3,16545.0,16545.0,16545.0,16545.0,17,-9,16540,113,16545,12
2016-09-12 13:09:00,13:09:49,13:09:55,49235,49348,16540.0,97,16545.0,88,16540.0,16540.0,16535.0,16535.0,199,-185,16530,70,16535,16
2016-09-12 13:10:00,13:10:14,13:10:18,49377,49389,16530.0,80,16535.0,45,16530.0,16535.0,16530.0,16535.0,9,-5,16530,80,16535,19
2016-09-12 13:11:00,13:11:06,13:11:40,49432,49451,16530.0,83,16535.0,44,16535.0,16535.0,16535.0,16535.0,5,5,16530,129,16535,44
2016-09-12 13:12:00,13:12:02,13:12:59,49465,49560,16530.0,139,16535.0,51,16535.0,16535.0,16530.0,16535.0,61,31,16530,137,16535,18
2016-09-12 13:13:00,13:13:00,13:13:57,49563,49730,16530.0,138,16535.0,17,16530.0,16545.0,16530.0,16540.0,167,127,16535,75,16540,31
2016-09-12 13:14:00,13:14:01,13:14:51,49738,49946,16535.0,77,16540.0,31,16535.0,16540.0,16530.0,16535.0,313,29,16530,59,16535,36
2016-09-12 13:15:00,13:15:04,13:15:53,49967,50084,16530.0,68,16535.0,34,16535.0,16540.0,16535.0,16540.0,99,68,16535,63,16545,96
2016-09-12 13:16:00,13:16:03,13:16:57,50096,50254,16535.0,67,16540.0,20,16540.0,16540.0,16525.0,16525.0,149,-59,16525,39,16530,55
2016-09-12 13:17:00,13:17:02,13:17:59,50261,50408,16525.0,36,16530.0,64,16530.0,16530.0,16520.0,16520.0,119,-41,16520,40,16525,31
2016-09-12 13:18:00,13:18:03,13:18:59,50415,50549,16520.0,34,16525.0,35,16525.0,16525.0,16520.0,16525.0,80,32,16520,44,16525,38
2016-09-12 13:19:00,13:19:07,13:19:59,50552,50833,16520.0,42,16525.0,40,16525.0,16525.0,16510.0,16510.0,331,-261,16505,54,16515,64
2016-09-12 13:20:00,13:20:00,13:20:59,50836,51090,16505.0,54,16515.0,64,16510.0,16515.0,16505.0,16515.0,260,41,16510,113,16515,35
2016-09-12 13:21:00,13:21:11,13:21:57,51099,51202,16510.0,120,16515.0,33,16515.0,16515.0,16510.0,16510.0,67,-51,16510,49,16515,82
2016-09-12 13:22:00,13:22:01,13:22:57,51207,51432,16510.0,52,16515.0,89,16515.0,16515.0,16505.0,16505.0,217,-139,16505,17,16510,62
2016-09-12 13:23:00,13:23:02,13:23:57,51444,51613,16505.0,17,16510.0,69,16505.0,16515.0,16505.0,16510.0,153,9,16505,49,16510,4
2016-09-12 13:24:00,13:24:04,13:24:57,51627,51760,16505.0,54,16510.0,36,16510.0,16515.0,16505.0,16510.0,119,3,16510,41,16515,77
2016-09-12 13:25:00,13:25:09,13:25:57,51782,51932,16510.0,42,16515.0,97,16510.0,16515.0,16505.0,16505.0,202,-110,16505,28,16510,47
2016-09-12 13:26:00,13:26:06,13:26:57,51939,52044,16505.0,32,16510.0,57,16510.0,16510.0,16505.0,16505.0,32,-26,16505,35,16510,45
2016-09-12 13:27:00,13:27:01,13:27:57,52052,52217,16505.0,39,16510.0,50,16510.0,16510.0,16505.0,16510.0,120,26,16505,31,16510,49
2016-09-12 13:28:00,13:28:01,13:28:57,52225,52479,16505.0,28,16510.0,57,16505.0,16505.0,16495.0,16505.0,262,7,16500,59,16505,28
2016-09-12 13:29:00,13:29:07,13:29:57,52486,52581,16500.0,66,16505.0,33,16505.0,16505.0,16500.0,16500.0,31,-27,16500,41,16505,38
2016-09-12 13:30:00,13:30:04,13:30:54,52590,52786,16500.0,44,16505.0,47,16505.0,16510.0,16500.0,16510.0,173,49,16510,10,16515,50
2016-09-12 13:31:00,13:31:01,13:31:57,52802,52954,16510.0,25,16515.0,54,16510.0,16510.0,16510.0,16510.0,110,-60,16510,32,16515,51
2016-09-12 13:32:00,13:32:00,13:32:57,52959,53109,16510.0,32,16515.0,48,16515.0,16515.0,16505.0,16505.0,117,-89,16505,23,16510,56
2016-09-12 13:33:00,13:33:07,13:33:59,53127,53420,16505.0,35,16510.0,51,16510.0,16510.0,16495.0,16495.0,338,-128,16495,33,16500,45
2016-09-12 13:34:00,13:34:08,13:34:59,53434,53597,16495.0,36,16500.0,51,16495.0,16495.0,16490.0,16495.0,195,-17,16490,98,16495,6
2016-09-12 13:35:00,13:35:00,13:35:57,53600,53804,16490.0,98,16495.0,6,16495.0,16495.0,16490.0,16490.0,263,-1,16490,47,16495,23
2016-09-12 13:36:00,13:36:12,13:36:52,53821,54061,16490.0,49,16495.0,29,16490.0,16495.0,16480.0,16480.0,331,-153,16480,5,16485,49
2016-09-12 13:37:00,13:37:04,13:37:57,54095,54267,16480.0,52,16485.0,48,16480.0,16485.0,16480.0,16480.0,154,6,16480,27,16485,80
2016-09-12 13:38:00,13:38:11,13:38:53,54282,54438,16480.0,32,16485.0,91,16480.0,16495.0,16480.0,16495.0,274,210,16495,15,16500,53
2016-09-12 13:39:00,13:39:12,13:39:57,54468,54633,16495.0,36,16500.0,57,16495.0,16495.0,16490.0,16495.0,105,-37,16495,37,16500,46
2016-09-12 13:40:00,13:40:01,13:40:35,54644,54748,16495.0,39,16500.0,45,16500.0,16510.0,16500.0,16510.0,94,46,16505,12,16510,43
2016-09-12 13:41:00,13:41:32,13:41:43,54821,54836,16505.0,30,16510.0,121,16510.0,16510.0,16510.0,16510.0,3,3,16505,40,16510,113
2016-09-12 13:42:00,13:42:03,13:42:57,54853,55102,16505.0,47,16510.0,116,16510.0,16520.0,16510.0,16520.0,306,258,16515,80,16520,26
2016-09-12 13:43:00,13:43:00,13:43:58,55108,55217,16515.0,71,16520.0,45,16520.0,16520.0,16515.0,16520.0,43,27,16515,82,16520,24
2016-09-12 13:44:00,13:44:05,13:44:59,55233,55377,16515.0,76,16520.0,41,16520.0,16520.0,16515.0,16515.0,84,-38,16510,67,16515,20
2016-09-12 13:45:00,13:45:00,13:45:54,55380,55503,16510.0,67,16515.0,20,16515.0,16515.0,16510.0,16515.0,115,9,16510,56,16515,42
2016-09-12 13:46:00,13:46:01,13:46:56,55513,55617,16510.0,68,16515.0,47,16515.0,16515.0,16515.0,16515.0,172,168,16515,26,16520,48
2016-09-12 13:47:00,13:47:02,13:47:53,55624,55671,16515.0,38,16520.0,48,16515.0,16515.0,16515.0,16515.0,44,-42,16510,166,16515,56
2016-09-12 13:48:00,13:48:03,13:48:55,55681,55920,16510.0,197,16515.0,68,16515.0,16515.0,16505.0,16505.0,375,-321,16505,61,16510,33
2016-09-12 13:49:00,13:49:06,13:49:54,55933,56033,16505.0,60,16510.0,38,16510.0,16510.0,16505.0,16505.0,105,-57,16505,8,16510,66
2016-09-12 13:50:00,13:50:00,13:50:59,56047,56296,16505.0,35,16510.0,50,16505.0,16510.0,16505.0,16510.0,340,207,16510,42,16515,89
2016-09-12 13:51:00,13:51:12,13:51:55,56317,56470,16510.0,69,16515.0,61,16510.0,16510.0,16505.0,16505.0,177,-151,16505,39,16510,52
2016-09-12 13:52:00,13:52:00,13:52:53,56477,56755,16505.0,45,16510.0,59,16510.0,16525.0,16505.0,16525.0,412,145,16520,28,16525,63
2016-09-12 13:53:00,13:53:00,13:53:59,56766,56992,16520.0,48,16525.0,58,16525.0,16525.0,16510.0,16510.0,241,-91,16510,61,16515,38
2016-09-12 13:54:00,13:54:03,13:54:58,56997,57157,16510.0,68,16515.0,39,16510.0,16520.0,16510.0,16515.0,228,-58,16515,14,16520,70
2016-09-12 13:55:00,13:55:00,13:55:55,57160,57485,16515.0,14,16520.0,70,16515.0,16530.0,16515.0,16530.0,468,102,16525,39,16530,54
2016-09-12 13:56:00,13:56:02,13:56:56,57498,57721,16525.0,51,16530.0,58,16530.0,16530.0,16520.0,16525.0,284,30,16520,77,16525,6
2016-09-12 13:57:00,13:57:01,13:57:58,57731,57998,16520.0,77,16525.0,17,16525.0,16535.0,16525.0,16535.0,446,264,16530,82,16535,11
2016-09-12 13:58:00,13:58:02,13:58:59,58004,58205,16530.0,86,16535.0,21,16535.0,16535.0,16530.0,16535.0,190,-6,16530,121,16535,28
2016-09-12 13:59:00,13:59:00,13:59:58,58210,58604,16530.0,120,16535.0,33,16535.0,16540.0,16530.0,16530.0,602,99,16530,99,16535,83
2016-09-12 14:00:00,14:00:00,14:00:57,58609,59268,16530.0,95,16535.0,80,16530.0,16540.0,16520.0,16535.0,1317,123,16535,93,16540,69
2016-09-12 14:01:00,14:01:00,14:01:59,59272,59496,16535.0,93,16540.0,56,16540.0,16540.0,16535.0,16535.0,337,51,16530,102,16535,33
2016-09-12 14:02:00,14:02:05,14:02:56,59501,59619,16530.0,103,16535.0,34,16535.0,16540.0,16530.0,16540.0,112,74,16535,114,16540,99
2016-09-12 14:03:00,14:03:01,14:03:59,59624,59899,16535.0,114,16540.0,102,16540.0,16540.0,16530.0,16535.0,389,-183,16530,86,16535,18
2016-09-12 14:04:00,14:04:01,14:04:55,59903,60004,16530.0,86,16535.0,24,16535.0,16535.0,16530.0,16535.0,73,71,16530,90,16535,31
2016-09-12 14:05:00,14:05:00,14:05:31,60013,60127,16530.0,80,16535.0,37,16530.0,16535.0,16530.0,16535.0,129,-41,16530,41,16535,235
2016-09-12 14:06:00,14:06:01,14:06:59,60159,60409,16530.0,107,16535.0,218,16530.0,16540.0,16530.0,16535.0,587,-121,16535,35,16540,97
2016-09-12 14:07:00,14:07:24,14:07:54,60426,60466,16535.0,75,16540.0,95,16535.0,16540.0,16535.0,16535.0,66,-4,16535,29,16540,128
2016-09-12 14:08:00,14:08:01,14:08:59,60472,60833,16535.0,32,16540.0,148,16540.0,16550.0,16535.0,16550.0,1033,819,16545,101,16550,82
