,ST,ET,sidx,eidx,bB,bBS,bA,bAS,O,H,L,C,V,OF,eB,eBS,eA,eAS
2016-10-13 08:00:00,08:00:00,08:00:57,2008,2411,16925.0,34,16930.0,15,16930.0,16935.0,16920.0,16930.0,654,258,16925,31,16930,29
2016-10-13 08:01:00,08:01:04,08:01:59,2425,2768,16925.0,18,16930.0,37,16925.0,16935.0,16920.0,16935.0,409,133,16935,38,16940,49
2016-10-13 08:02:00,08:02:00,08:02:51,2774,3060,16935.0,49,16940.0,52,16940.0,16945.0,16935.0,16940.0,308,206,16940,24,16945,65
2016-10-13 08:03:00,08:03:07,08:03:55,3080,3244,16940.0,29,16945.0,75,16945.0,16945.0,16940.0,16945.0,165,19,16945,37,16950,66
2016-10-13 08:04:00,08:04:03,08:04:55,3259,3435,16945.0,46,16950.0,66,16950.0,16950.0,16940.0,16940.0,126,-16,16940,44,16945,58
2016-10-13 08:05:00,08:05:00,08:05:57,3444,3719,16940.0,65,16945.0,49,16940.0,16955.0,16940.0,16950.0,209,137,16945,81,16950,7
2016-10-13 08:06:00,08:06:00,08:06:54,3726,3954,16945.0,75,16950.0,12,16950.0,16950.0,16950.0,16950.0,209,149,16945,76,16950,18
2016-10-13 08:07:00,08:07:23,08:07:48,3991,4050,16945.0,80,16950.0,39,16950.0,16950.0,16945.0,16950.0,40,2,16945,97,16950,14
2016-10-13 08:08:00,08:08:04,08:08:53,4074,4151,16945.0,84,16950.0,51,16945.0,16945.0,16940.0,16940.0,76,-76,16940,57,16945,61
2016-10-13 08:09:00,08:09:01,08:09:59,4157,4303,16940.0,58,16945.0,61,16940.0,16945.0,16935.0,16935.0,170,-124,16930,79,16935,1
2016-10-13 08:10:00,08:10:00,08:10:59,4306,4487,16930.0,79,16935.0,1,16930.0,16935.0,16930.0,16935.0,186,34,16930,52,16935,48
2016-10-13 08:11:00,08:11:04,08:11:58,4501,4663,16930.0,61,16935.0,52,16935.0,16935.0,16930.0,16935.0,219,185,16930,66,16935,5
2016-10-13 08:12:00,08:12:11,08:12:55,4673,4726,16930.0,61,16935.0,39,16930.0,16935.0,16930.0,16935.0,31,27,16935,14,16940,72
2016-10-13 08:13:00,08:13:00,08:13:49,4736,4836,16935.0,41,16940.0,63,16935.0,16935.0,16935.0,16935.0,106,-74,16935,41,16940,64
2016-10-13 08:14:00,08:14:04,08:14:47,4859,4970,16935.0,33,16940.0,63,16935.0,16935.0,16935.0,16935.0,99,12,16935,2,16940,66
2016-10-13 08:15:00,08:15:00,08:15:58,4988,5117,16930.0,59,16935.0,7,16935.0,16945.0,16935.0,16940.0,78,52,16940,37,16945,43
2016-10-13 08:16:00,08:16:02,08:16:55,5127,5283,16940.0,49,16945.0,43,16940.0,16945.0,16935.0,16935.0,145,-31,16930,53,16935,23
2016-10-13 08:17:00,08:17:08,08:17:59,5303,5457,16930.0,56,16935.0,38,16935.0,16935.0,16930.0,16930.0,216,-126,16925,87,16930,39
2016-10-13 08:18:00,08:18:04,08:18:59,5468,5804,16925.0,84,16930.0,39,16930.0,16930.0,16910.0,16920.0,501,43,16920,3,16925,70
2016-10-13 08:19:00,08:19:00,08:19:54,5807,6257,16920.0,3,16925.0,70,16920.0,16920.0,16905.0,16915.0,607,208,16910,104,16915,34
2016-10-13 08:20:00,08:20:00,08:20:45,6263,6308,16910.0,104,16915.0,31,16915.0,16915.0,16910.0,16910.0,23,17,16910,101,16915,39
2016-10-13 08:21:00,08:21:05,08:21:59,6344,6475,16910.0,100,16915.0,44,16915.0,16920.0,16910.0,16920.0,120,70,16915,51,16920,10
2016-10-13 08:22:00,08:22:01,08:22:57,6483,6612,16915.0,58,16920.0,10,16920.0,16925.0,16920.0,16920.0,115,-71,16915,54,16920,37
2016-10-13 08:23:00,08:23:00,08:23:28,6622,6701,16915.0,71,16920.0,9,16920.0,16930.0,16920.0,16930.0,54,48,16925,42,16930,33
2016-10-13 08:24:00,08:24:13,08:24:53,6755,6808,16925.0,81,16930.0,29,16930.0,16930.0,16930.0,16930.0,6,6,16925,82,16930,49
2016-10-13 08:25:00,08:25:18,08:25:59,6831,6949,16925.0,79,16930.0,62,16930.0,16930.0,16925.0,16930.0,151,-41,16925,49,16930,60
2016-10-13 08:26:00,08:26:06,08:26:59,6959,7136,16925.0,57,16930.0,64,16930.0,16935.0,16930.0,16935.0,190,-24,16930,37,16935,47
2016-10-13 08:27:00,08:27:21,08:27:50,7164,7236,16930.0,53,16935.0,40,16935.0,16935.0,16935.0,16935.0,66,18,16930,67,16935,21
2016-10-13 08:28:00,08:28:10,08:28:59,7261,7366,16930.0,62,16935.0,35,16935.0,16940.0,16935.0,16935.0,71,-13,16930,83,16935,1
2016-10-13 08:29:00,08:29:00,08:29:55,7369,7446,16930.0,83,16935.0,1,16935.0,16940.0,16935.0,16935.0,34,4,16935,5,16940,65
2016-10-13 08:30:00,08:30:02,08:30:47,7457,7552,16935.0,15,16940.0,65,16935.0,16935.0,16935.0,16935.0,67,-19,16935,12,16940,60
2016-10-13 08:31:00,08:31:01,08:31:30,7564,7614,16935.0,23,16940.0,58,16940.0,16940.0,16930.0,16930.0,26,-12,16930,60,16935,14
2016-10-13 08:32:00,08:32:52,08:32:53,7681,7690,16935.0,51,16940.0,56,16940.0,16940.0,16940.0,16940.0,14,14,16935,41,16940,45
2016-10-13 08:33:00,08:33:08,08:33:34,7704,7740,16935.0,44,16940.0,53,16940.0,16940.0,16940.0,16940.0,13,13,16935,53,16940,40
2016-10-13 08:34:00,08:34:08,08:34:53,7745,7850,16935.0,54,16940.0,40,16940.0,16945.0,16940.0,16945.0,88,82,16940,75,16950,62
2016-10-13 08:35:00,08:35:21,08:35:54,7881,8058,16940.0,52,16945.0,47,16940.0,16945.0,16940.0,16945.0,211,11,16940,65,16950,54
2016-10-13 08:36:00,08:36:09,08:36:47,8087,8136,16940.0,63,16945.0,21,16945.0,16945.0,16945.0,16945.0,34,34,16945,58,16950,40
2016-10-13 08:37:00,08:37:00,08:37:39,8160,8312,16945.0,65,16950.0,45,16945.0,16950.0,16945.0,16950.0,185,-75,16945,23,16950,67
2016-10-13 08:38:00,08:38:16,08:38:57,8339,8594,16945.0,34,16950.0,73,16950.0,16965.0,16950.0,16955.0,341,302,16955,97,16960,17
2016-10-13 08:39:00,08:39:05,08:39:59,8615,8908,16955.0,105,16960.0,37,16960.0,16970.0,16955.0,16965.0,412,-67,16955,66,16960,6
2016-10-13 08:40:00,08:40:00,08:40:58,8909,9189,16955.0,62,16960.0,32,16960.0,16970.0,16955.0,16970.0,335,36,16965,39,16970,11
2016-10-13 08:41:00,08:41:00,08:41:59,9196,9583,16965.0,26,16970.0,38,16970.0,16975.0,16965.0,16965.0,471,-101,16960,105,16965,12
2016-10-13 08:42:00,08:42:00,08:42:58,9586,9846,16960.0,105,16965.0,12,16965.0,16965.0,16955.0,16960.0,296,35,16960,39,16965,50
2016-10-13 08:43:00,08:43:00,08:43:47,9855,10030,16960.0,34,16965.0,54,16960.0,16960.0,16955.0,16955.0,134,-102,16950,122,16955,2
2016-10-13 08:44:00,08:44:00,08:44:59,10053,10182,16955.0,43,16960.0,55,16960.0,16960.0,16955.0,16960.0,135,123,16960,9,16965,62
2016-10-13 08:45:00,08:45:00,08:45:58,10183,10331,16960.0,18,16965.0,60,16960.0,16965.0,16960.0,16965.0,120,-35,16960,42,16965,28
2016-10-13 08:46:00,08:46:04,08:46:55,10338,10515,16960.0,41,16965.0,32,16965.0,16965.0,16950.0,16950.0,207,-141,16945,44,16950,15
2016-10-13 08:47:00,08:47:01,08:47:12,10525,10592,16945.0,49,16950.0,22,16950.0,16955.0,16950.0,16955.0,75,69,16955,22,16960,34
2016-10-13 08:48:00,08:48:11,08:48:58,10664,10769,16955.0,40,16960.0,23,16960.0,16965.0,16960.0,16965.0,45,45,16965,14,16970,41
2016-10-13 08:49:00,08:49:01,08:49:59,10777,10893,16965.0,27,16970.0,45,16970.0,16970.0,16965.0,16970.0,60,-38,16965,44,16970,24
2016-10-13 08:50:00,08:50:00,08:50:50,10895,10994,16965.0,46,16970.0,24,16970.0,16970.0,16965.0,16965.0,51,9,16965,18,16970,62
2016-10-13 08:51:00,08:51:02,08:51:53,11003,11068,16965.0,28,16970.0,53,16970.0,16970.0,16965.0,16965.0,39,-37,16965,15,16970,51
2016-10-13 08:52:00,08:52:00,08:52:58,11081,11189,16965.0,2,16970.0,51,16965.0,16965.0,16965.0,16965.0,60,-22,16960,54,16965,9
2016-10-13 08:53:00,08:53:01,08:53:51,11195,11311,16960.0,54,16965.0,7,16965.0,16970.0,16965.0,16965.0,92,22,16960,65,16965,22
2016-10-13 08:54:00,08:54:03,08:54:50,11331,11460,16960.0,37,16965.0,52,16960.0,16960.0,16955.0,16955.0,125,-93,16950,48,16955,40
2016-10-13 08:55:00,08:55:02,08:55:57,11482,11636,16950.0,50,16955.0,35,16950.0,16960.0,16950.0,16960.0,80,66,16955,56,16960,49
2016-10-13 08:56:00,08:56:07,08:56:59,11652,11769,16955.0,21,16960.0,54,16960.0,16960.0,16955.0,16955.0,113,5,16950,76,16960,49
2016-10-13 08:57:00,08:57:05,08:57:57,11777,11821,16955.0,18,16960.0,55,16955.0,16955.0,16955.0,16955.0,8,-8,16955,6,16960,52
2016-10-13 08:58:00,08:58:43,08:58:59,11869,11898,16955.0,14,16960.0,56,16955.0,16960.0,16955.0,16960.0,36,12,16955,60,16960,3
2016-10-13 08:59:00,08:59:00,08:59:36,11901,12017,16955.0,60,16960.0,3,16960.0,16960.0,16960.0,16960.0,87,53,16955,71,16960,30
2016-10-13 09:00:00,09:00:19,09:00:54,12064,12142,16955.0,30,16960.0,44,16955.0,16955.0,16955.0,16955.0,59,-34,16950,62,16960,55
2016-10-13 09:01:00,09:01:00,09:01:58,12153,12252,16950.0,62,16955.0,5,16955.0,16955.0,16955.0,16955.0,53,27,16950,62,16955,5
2016-10-13 09:02:00,09:02:44,09:02:44,12289,12289,16950.0,65,16955.0,34,16950.0,16950.0,16950.0,16950.0,2,-2,16950,63,16955,35
2016-10-13 09:03:00,09:03:13,09:03:51,12310,12363,16950.0,67,16955.0,30,16955.0,16955.0,16955.0,16955.0,34,24,16950,60,16955,26
2016-10-13 09:04:00,09:04:23,09:04:40,12391,12432,16950.0,44,16955.0,53,16950.0,16950.0,16950.0,16950.0,41,-39,16945,59,16950,40
2016-10-13 09:05:00,09:05:13,09:05:56,12477,12615,16945.0,56,16950.0,57,16945.0,16945.0,16945.0,16945.0,126,-60,16945,16,16950,45
2016-10-13 09:06:00,09:06:10,09:06:58,12628,12803,16945.0,31,16950.0,39,16945.0,16950.0,16945.0,16945.0,142,-30,16940,66,16945,21
2016-10-13 09:07:00,09:07:09,09:07:49,12814,12883,16940.0,70,16945.0,12,16945.0,16945.0,16940.0,16945.0,5,3,16940,55,16945,29
2016-10-13 09:08:00,09:08:01,09:08:57,12901,13064,16940.0,70,16945.0,27,16945.0,16945.0,16940.0,16945.0,138,-60,16940,17,16945,45
2016-10-13 09:09:00,09:09:00,09:09:27,13069,13162,16940.0,31,16945.0,45,16940.0,16940.0,16940.0,16940.0,68,-66,16935,64,16945,47
2016-10-13 09:10:00,09:10:11,09:10:52,13227,13305,16940.0,31,16945.0,39,16945.0,16945.0,16945.0,16945.0,46,46,16945,56,16950,95
2016-10-13 09:11:00,09:11:20,09:11:37,13342,13404,16945.0,48,16950.0,30,16950.0,16950.0,16945.0,16945.0,76,-18,16945,6,16950,46
2016-10-13 09:12:00,09:12:16,09:12:29,13450,13482,16945.0,8,16950.0,44,16945.0,16945.0,16940.0,16945.0,14,-2,16940,38,16945,10
2016-10-13 09:13:00,09:13:48,09:13:49,13571,13578,16940.0,60,16945.0,10,16945.0,16945.0,16945.0,16945.0,9,9,16940,63,16945,14
2016-10-13 09:14:00,09:14:05,09:14:54,13587,13655,16940.0,45,16945.0,16,16945.0,16945.0,16935.0,16940.0,46,-34,16935,41,16940,30
2016-10-13 09:15:00,09:15:08,09:15:55,13680,13814,16935.0,40,16940.0,35,16940.0,16945.0,16935.0,16935.0,91,14,16935,5,16940,72
2016-10-13 09:16:00,09:16:20,09:16:45,13857,13915,16935.0,25,16940.0,52,16935.0,16935.0,16935.0,16935.0,60,-60,16930,48,16935,8
2016-10-13 09:17:00,09:17:15,09:17:51,13954,14008,16930.0,53,16935.0,44,16935.0,16935.0,16935.0,16935.0,51,23,16930,47,16935,49
2016-10-13 09:18:00,09:18:10,09:18:51,14016,14273,16930.0,53,16935.0,48,16930.0,16930.0,16920.0,16925.0,363,-223,16925,11,16930,55
2016-10-13 09:19:00,09:19:11,09:19:54,14302,14393,16925.0,31,16930.0,54,16930.0,16930.0,16920.0,16920.0,48,-46,16920,21,16925,66
2016-10-13 09:20:00,09:20:13,09:20:50,14423,14556,16920.0,25,16925.0,66,16920.0,16925.0,16920.0,16925.0,167,71,16920,45,16930,59
2016-10-13 09:21:00,09:21:03,09:21:36,14578,14641,16920.0,47,16925.0,8,16925.0,16930.0,16925.0,16930.0,52,0,16925,38,16930,43
2016-10-13 09:22:00,09:22:09,09:22:57,14675,14801,16925.0,27,16930.0,48,16925.0,16925.0,16925.0,16925.0,105,17,16920,46,16925,15
2016-10-13 09:23:00,09:23:34,09:23:51,14868,14900,16920.0,39,16925.0,54,16920.0,16920.0,16920.0,16920.0,13,-13,16920,22,16925,52
2016-10-13 09:24:00,09:24:01,09:24:58,14909,15083,16920.0,20,16925.0,53,16920.0,16920.0,16915.0,16915.0,126,2,16915,29,16920,51
2016-10-13 09:25:00,09:25:15,09:25:51,15106,15225,16915.0,20,16920.0,53,16915.0,16915.0,16915.0,16915.0,81,17,16915,4,16920,56
2016-10-13 09:26:00,09:26:02,09:26:29,15242,15369,16915.0,11,16920.0,57,16915.0,16915.0,16910.0,16915.0,114,50,16910,50,16915,4
2016-10-13 09:27:00,09:27:23,09:27:58,15443,15521,16915.0,71,16920.0,48,16920.0,16920.0,16915.0,16920.0,40,-10,16915,33,16920,62
2016-10-13 09:28:00,09:28:08,09:28:57,15536,15669,16915.0,49,16920.0,46,16920.0,16925.0,16920.0,16925.0,92,83,16920,37,16925,32
2016-10-13 09:29:00,09:29:05,09:29:46,15680,16044,16920.0,47,16925.0,44,16925.0,16925.0,16910.0,16910.0,491,-280,16905,54,16910,4
2016-10-13 09:30:00,09:30:09,09:30:42,16086,16171,16905.0,54,16910.0,64,16910.0,16910.0,16905.0,16910.0,71,-9,16905,43,16910,54
2016-10-13 09:31:00,09:31:10,09:31:54,16185,16366,16905.0,44,16910.0,57,16905.0,16915.0,16905.0,16910.0,274,131,16910,40,16915,48
2016-10-13 09:32:00,09:32:03,09:32:56,16377,16447,16910.0,44,16915.0,44,16910.0,16915.0,16910.0,16910.0,42,16,16910,33,16915,45
2016-10-13 09:33:00,09:33:04,09:33:13,16454,16470,16910.0,35,16915.0,43,16915.0,16915.0,16915.0,16915.0,9,9,16910,34,16915,39
2016-10-13 09:34:00,09:34:03,09:34:47,16491,16691,16910.0,45,16915.0,42,16915.0,16925.0,16915.0,16920.0,221,123,16915,64,16920,58
2016-10-13 09:35:00,09:35:24,09:35:24,16733,16739,16915.0,68,16920.0,70,16920.0,16920.0,16920.0,16920.0,10,10,16915,71,16920,64
2016-10-13 09:36:00,09:36:02,09:36:47,16779,16875,16915.0,73,16920.0,63,16920.0,16920.0,16920.0,16920.0,125,125,16915,79,16920,46
2016-10-13 09:37:00,09:37:00,09:37:55,16883,17119,16915.0,82,16920.0,51,16920.0,16925.0,16920.0,16925.0,258,84,16925,3,16930,46
2016-10-13 09:38:00,09:38:00,09:38:59,17128,17250,16920.0,66,16925.0,16,16925.0,16925.0,16925.0,16925.0,69,57,16925,21,16930,40
2016-10-13 09:39:00,09:39:02,09:39:53,17257,17360,16925.0,4,16930.0,46,16925.0,16930.0,16925.0,16925.0,59,0,16920,61,16925,3
2016-10-13 09:40:00,09:40:13,09:40:31,17400,17502,16920.0,45,16925.0,36,16920.0,16920.0,16910.0,16915.0,118,-10,16910,53,16915,24
2016-10-13 09:41:00,09:41:02,09:41:03,17533,17569,16910.0,58,16915.0,36,16910.0,16910.0,16905.0,16910.0,61,-59,16905,43,16910,16
2016-10-13 09:42:00,09:42:01,09:42:59,17624,17706,16905.0,64,16910.0,22,16910.0,16915.0,16910.0,16915.0,36,14,16910,66,16915,37
2016-10-13 09:43:00,09:43:04,09:43:59,17710,17869,16910.0,66,16915.0,36,16915.0,16915.0,16915.0,16915.0,181,-20,16910,53,16915,9
2016-10-13 09:44:00,09:44:00,09:44:59,17870,18006,16915.0,18,16920.0,49,16915.0,16915.0,16915.0,16915.0,77,17,16910,61,16915,12
2016-10-13 09:45:00,09:45:09,09:45:57,18023,18160,16910.0,63,16915.0,4,16915.0,16915.0,16905.0,16910.0,182,-54,16910,9,16915,43
2016-10-13 09:46:00,09:46:01,09:46:40,18166,18205,16910.0,25,16915.0,44,16910.0,16910.0,16910.0,16910.0,16,-16,16905,72,16910,42
2016-10-13 09:47:00,09:47:00,09:47:00,0,0,0.0,0,0.0,0,16910.0,16910.0,16910.0,16910.0,0,0,0,0,0,0
2016-10-13 09:48:00,09:48:06,09:48:06,18288,18288,16905.0,64,16910.0,35,16910.0,16910.0,16910.0,16910.0,2,2,16905,61,16910,33
2016-10-13 09:49:00,09:49:04,09:49:48,18342,18508,16905.0,69,16910.0,46,16910.0,16910.0,16900.0,16900.0,164,-89,16900,15,16905,52
2016-10-13 09:50:00,09:50:16,09:50:55,18545,18819,16900.0,24,16905.0,61,16900.0,16900.0,16885.0,16890.0,283,-20,16890,24,16895,55
2016-10-13 09:51:00,09:51:00,09:51:38,18834,19024,16890.0,24,16895.0,54,16890.0,16890.0,16885.0,16885.0,198,-126,16885,46,16890,45
2016-10-13 09:52:00,09:52:00,09:52:45,19056,19286,16885.0,61,16890.0,25,16890.0,16890.0,16875.0,16875.0,238,-128,16875,1,16880,55
2016-10-13 09:53:00,09:53:13,09:53:58,19314,19585,16875.0,46,16880.0,47,16880.0,16885.0,16875.0,16880.0,299,85,16875,53,16880,19
2016-10-13 09:54:00,09:54:04,09:54:57,19596,20034,16875.0,54,16880.0,20,16875.0,16880.0,16860.0,16860.0,641,-351,16860,21,16865,73
2016-10-13 09:55:00,09:55:00,09:55:57,20039,20637,16860.0,27,16865.0,73,16860.0,16860.0,16845.0,16855.0,947,103,16855,10,16860,59
2016-10-13 09:56:00,09:56:00,09:56:55,20643,20913,16855.0,22,16860.0,58,16855.0,16870.0,16850.0,16865.0,276,190,16865,54,16870,5
2016-10-13 09:57:00,09:57:01,09:57:56,20926,21277,16865.0,38,16870.0,42,16870.0,16870.0,16850.0,16850.0,545,-243,16850,4,16855,52
2016-10-13 09:58:00,09:58:01,09:58:52,21289,21445,16850.0,39,16855.0,42,16850.0,16855.0,16850.0,16855.0,141,-65,16850,68,16855,74
2016-10-13 09:59:00,09:59:08,09:59:59,21458,21635,16850.0,76,16855.0,79,16855.0,16860.0,16855.0,16860.0,227,187,16855,60,16860,17
2016-10-13 10:00:00,10:00:11,10:00:59,21659,21906,16855.0,62,16860.0,129,16855.0,16855.0,16840.0,16840.0,429,-325,16835,25,16840,40
2016-10-13 10:01:00,10:01:00,10:01:58,21912,22579,16835.0,19,16840.0,90,16835.0,16840.0,16805.0,16810.0,1149,-423,16805,83,16810,24
2016-10-13 10:02:00,10:02:00,10:02:56,22586,22939,16805.0,67,16810.0,48,16805.0,16815.0,16805.0,16805.0,667,303,16805,29,16810,22
2016-10-13 10:03:00,10:03:00,10:03:48,22948,23171,16805.0,47,16810.0,44,16805.0,16810.0,16805.0,16810.0,322,28,16805,91,16810,26
2016-10-13 10:04:00,10:04:01,10:04:57,23189,23597,16805.0,91,16810.0,43,16810.0,16820.0,16810.0,16820.0,818,758,16815,53,16820,20
2016-10-13 10:05:00,10:05:00,10:05:56,23603,23805,16815.0,53,16820.0,21,16820.0,16825.0,16815.0,16820.0,254,102,16815,73,16820,50
2016-10-13 10:06:00,10:06:02,10:06:59,23811,24275,16815.0,88,16820.0,60,16820.0,16820.0,16795.0,16810.0,730,-241,16805,70,16810,23
2016-10-13 10:07:00,10:07:03,10:07:58,24288,24561,16805.0,58,16810.0,44,16810.0,16825.0,16805.0,16820.0,312,-10,16820,10,16825,80
2016-10-13 10:08:00,10:08:00,10:08:57,24567,24756,16820.0,13,16825.0,79,16820.0,16820.0,16810.0,16810.0,154,-128,16810,45,16815,54
2016-10-13 10:09:00,10:09:05,10:09:57,24768,25190,16810.0,47,16815.0,55,16810.0,16810.0,16800.0,16800.0,541,-166,16800,37,16805,21
2016-10-13 10:10:00,10:10:04,10:10:59,25204,25765,16800.0,33,16805.0,37,16805.0,16810.0,16785.0,16785.0,771,-105,16785,122,16790,46
2016-10-13 10:11:00,10:11:00,10:11:59,25768,26207,16785.0,122,16790.0,46,16785.0,16800.0,16785.0,16795.0,529,-7,16795,11,16800,33
2016-10-13 10:12:00,10:12:01,10:12:57,26211,26776,16795.0,5,16800.0,33,16795.0,16795.0,16775.0,16780.0,852,-174,16775,38,16780,10
2016-10-13 10:13:00,10:13:00,10:13:59,26784,27271,16775.0,34,16780.0,18,16775.0,16775.0,16755.0,16755.0,609,-274,16745,71,16750,5
2016-10-13 10:14:00,10:14:00,10:14:59,27272,27694,16750.0,65,16755.0,5,16750.0,16770.0,16750.0,16755.0,532,15,16755,25,16760,20
2016-10-13 10:15:00,10:15:00,10:15:59,27697,28117,16755.0,25,16760.0,20,16755.0,16775.0,16755.0,16765.0,466,56,16765,18,16770,28
2016-10-13 10:16:00,10:16:00,10:16:50,28118,28351,16765.0,21,16770.0,25,16765.0,16775.0,16765.0,16765.0,310,30,16765,25,16770,54
2016-10-13 10:17:00,10:17:00,10:17:59,28368,28788,16765.0,34,16770.0,69,16765.0,16765.0,16750.0,16755.0,505,-292,16750,35,16755,9
2016-10-13 10:18:00,10:18:00,10:18:59,28791,29141,16750.0,35,16755.0,9,16750.0,16765.0,16750.0,16765.0,400,68,16765,20,16770,62
2016-10-13 10:19:00,10:19:00,10:19:54,29146,29551,16765.0,25,16770.0,61,16765.0,16770.0,16755.0,16765.0,473,-96,16765,11,16770,59
2016-10-13 10:20:00,10:20:03,10:20:57,29569,29797,16765.0,47,16770.0,36,16765.0,16775.0,16765.0,16770.0,216,23,16765,42,16770,2
2016-10-13 10:21:00,10:21:24,10:21:59,29836,29930,16770.0,29,16775.0,72,16775.0,16775.0,16770.0,16775.0,152,52,16775,15,16780,48
2016-10-13 10:22:00,10:22:00,10:22:59,29931,30131,16770.0,49,16775.0,21,16775.0,16785.0,16775.0,16785.0,149,118,16785,15,16790,42
2016-10-13 10:23:00,10:23:17,10:23:57,30167,30275,16785.0,76,16790.0,47,16785.0,16785.0,16785.0,16785.0,107,-87,16780,36,16785,30
2016-10-13 10:24:00,10:24:04,10:24:59,30284,30582,16780.0,37,16785.0,36,16785.0,16790.0,16775.0,16785.0,291,37,16780,41,16785,7
2016-10-13 10:25:00,10:25:01,10:25:59,30590,30753,16780.0,19,16785.0,29,16785.0,16790.0,16780.0,16780.0,142,2,16780,35,16785,33
2016-10-13 10:26:00,10:26:08,10:26:58,30763,30945,16780.0,55,16785.0,36,16785.0,16790.0,16780.0,16780.0,162,20,16780,69,16785,23
2016-10-13 10:27:00,10:27:05,10:27:58,30955,31216,16780.0,71,16785.0,44,16780.0,16780.0,16770.0,16775.0,324,-124,16775,23,16780,29
2016-10-13 10:28:00,10:28:01,10:28:59,31225,31652,16775.0,29,16780.0,27,16775.0,16775.0,16765.0,16770.0,573,-47,16765,33,16770,3
2016-10-13 10:29:00,10:29:00,10:29:59,31655,31844,16765.0,33,16770.0,3,16770.0,16775.0,16770.0,16770.0,100,18,16765,25,16770,5
2016-10-13 10:30:00,10:30:08,10:30:52,31860,32033,16765.0,15,16770.0,21,16765.0,16775.0,16765.0,16775.0,113,28,16775,6,16780,47
2016-10-13 10:31:00,10:31:00,10:31:54,32040,32184,16775.0,10,16780.0,45,16775.0,16785.0,16775.0,16785.0,113,-19,16780,15,16785,43
2016-10-13 10:32:00,10:32:09,10:32:56,32198,32327,16780.0,20,16785.0,46,16780.0,16780.0,16775.0,16775.0,114,-4,16775,17,16780,23
2016-10-13 10:33:00,10:33:00,10:33:56,32333,32447,16775.0,26,16780.0,22,16775.0,16775.0,16770.0,16775.0,80,-74,16770,22,16775,19
2016-10-13 10:34:00,10:34:01,10:34:52,32453,32706,16770.0,27,16775.0,18,16770.0,16770.0,16750.0,16755.0,288,28,16755,22,16760,34
2016-10-13 10:35:00,10:35:00,10:35:52,32710,32949,16755.0,24,16760.0,34,16755.0,16760.0,16745.0,16745.0,213,-58,16745,19,16750,16
2016-10-13 10:36:00,10:36:02,10:36:58,32961,33185,16745.0,26,16750.0,18,16745.0,16755.0,16745.0,16750.0,203,-21,16745,34,16750,19
2016-10-13 10:37:00,10:37:04,10:37:59,33189,33349,16745.0,34,16750.0,21,16750.0,16755.0,16745.0,16745.0,104,4,16745,35,16750,26
2016-10-13 10:38:00,10:38:05,10:38:58,33352,33559,16745.0,35,16750.0,26,16750.0,16750.0,16740.0,16750.0,213,18,16750,33,16755,16
2016-10-13 10:39:00,10:39:03,10:39:58,33567,33713,16750.0,39,16755.0,31,16750.0,16750.0,16740.0,16745.0,137,-65,16745,12,16750,71
2016-10-13 10:40:00,10:40:00,10:40:54,33717,33819,16745.0,14,16750.0,72,16750.0,16750.0,16745.0,16745.0,136,6,16740,22,16745,14
2016-10-13 10:41:00,10:41:00,10:41:59,33830,34052,16740.0,22,16745.0,25,16740.0,16745.0,16725.0,16725.0,259,-161,16725,5,16730,24
2016-10-13 10:42:00,10:42:09,10:42:58,34072,34302,16720.0,22,16725.0,83,16720.0,16730.0,16715.0,16730.0,323,-15,16725,19,16730,14
2016-10-13 10:43:00,10:43:05,10:43:52,34311,34523,16725.0,23,16730.0,21,16730.0,16735.0,16725.0,16730.0,256,16,16725,24,16730,5
2016-10-13 10:44:00,10:44:07,10:44:52,34542,34643,16725.0,45,16730.0,9,16730.0,16730.0,16725.0,16725.0,91,37,16720,30,16725,10
2016-10-13 10:45:00,10:45:16,10:45:58,34668,35151,16720.0,27,16725.0,16,16725.0,16725.0,16685.0,16685.0,783,-257,16685,19,16690,42
2016-10-13 10:46:00,10:46:04,10:46:57,35165,35551,16685.0,28,16690.0,45,16685.0,16700.0,16680.0,16700.0,611,257,16695,14,16700,20
2016-10-13 10:47:00,10:47:02,10:47:55,35560,35829,16695.0,25,16700.0,15,16700.0,16705.0,16700.0,16705.0,338,193,16705,36,16710,28
2016-10-13 10:48:00,10:48:00,10:48:58,35840,36057,16705.0,36,16710.0,29,16710.0,16710.0,16700.0,16705.0,198,48,16700,78,16705,28
2016-10-13 10:49:00,10:49:05,10:49:57,36064,36261,16700.0,78,16705.0,30,16700.0,16710.0,16700.0,16705.0,270,22,16700,32,16710,29
2016-10-13 10:50:00,10:50:00,10:50:55,36263,36389,16700.0,32,16710.0,25,16705.0,16705.0,16700.0,16700.0,107,-60,16700,6,16705,35
2016-10-13 10:51:00,10:51:07,10:51:37,36401,36530,16700.0,22,16705.0,38,16705.0,16710.0,16705.0,16705.0,151,38,16705,1,16710,25
2016-10-13 10:52:00,10:52:14,10:52:55,36557,36725,16705.0,20,16710.0,28,16710.0,16720.0,16710.0,16720.0,209,123,16715,8,16720,28
2016-10-13 10:53:00,10:53:00,10:53:52,36734,37040,16715.0,11,16720.0,40,16715.0,16715.0,16695.0,16695.0,307,-7,16695,9,16700,25
2016-10-13 10:54:00,10:54:03,10:54:55,37053,37317,16695.0,27,16700.0,26,16700.0,16700.0,16695.0,16700.0,259,-7,16695,19,16700,21
2016-10-13 10:55:00,10:55:00,10:55:56,37323,37471,16695.0,21,16700.0,21,16700.0,16700.0,16695.0,16700.0,120,8,16695,29,16700,16
2016-10-13 10:56:00,10:56:05,10:56:34,37479,37519,16695.0,30,16700.0,14,16695.0,16705.0,16695.0,16700.0,26,20,16700,25,16705,24
2016-10-13 10:57:00,10:57:06,10:57:47,37531,37622,16700.0,38,16705.0,25,16705.0,16705.0,16700.0,16705.0,76,24,16705,11,16710,29
2016-10-13 10:58:00,10:58:08,10:58:55,37649,37726,16705.0,31,16710.0,22,16710.0,16710.0,16705.0,16705.0,55,13,16705,17,16710,40
2016-10-13 10:59:00,10:59:10,10:59:46,37737,37840,16705.0,28,16710.0,39,16710.0,16720.0,16710.0,16715.0,111,67,16715,1,16720,39
2016-10-13 11:00:00,11:00:01,11:00:54,37860,38115,16715.0,12,16720.0,45,16715.0,16715.0,16705.0,16710.0,303,51,16710,6,16715,32
2016-10-13 11:01:00,11:01:14,11:01:24,38151,38174,16710.0,33,16715.0,9,16715.0,16720.0,16715.0,16720.0,27,25,16715,22,16720,29
2016-10-13 11:02:00,11:02:05,11:02:54,38185,38201,16715.0,26,16720.0,27,16720.0,16720.0,16720.0,16720.0,3,3,16715,40,16720,25
2016-10-13 11:03:00,11:03:07,11:03:47,38207,38360,16715.0,42,16720.0,23,16720.0,16725.0,16715.0,16715.0,172,39,16710,33,16715,2
2016-10-13 11:04:00,11:04:21,11:04:58,38399,38490,16710.0,22,16715.0,33,16715.0,16715.0,16715.0,16715.0,74,43,16710,32,16715,20
2016-10-13 11:05:00,11:05:03,11:05:45,38493,38571,16710.0,35,16720.0,59,16715.0,16715.0,16715.0,16715.0,24,20,16710,31,16720,52
2016-10-13 11:06:00,11:06:09,11:06:56,38588,38668,16710.0,22,16715.0,20,16715.0,16715.0,16715.0,16715.0,54,10,16715,13,16720,63
2016-10-13 11:07:00,11:07:04,11:07:56,38671,38768,16715.0,13,16720.0,63,16720.0,16720.0,16710.0,16710.0,60,-39,16710,20,16715,27
2016-10-13 11:08:00,11:08:06,11:08:45,38775,38801,16710.0,26,16715.0,27,16710.0,16715.0,16710.0,16715.0,7,-5,16710,35,16715,22
2016-10-13 11:09:00,11:09:03,11:09:55,38816,38982,16710.0,33,16715.0,21,16715.0,16720.0,16710.0,16720.0,191,101,16720,26,16725,52
2016-10-13 11:10:00,11:10:03,11:10:52,38987,39038,16720.0,31,16725.0,52,16720.0,16720.0,16720.0,16720.0,47,-45,16715,45,16720,35
2016-10-13 11:11:00,11:11:18,11:11:18,39058,39081,16715.0,56,16720.0,50,16715.0,16715.0,16715.0,16715.0,50,-50,16710,33,16715,26
2016-10-13 11:12:00,11:12:03,11:12:58,39111,39230,16710.0,34,16715.0,25,16715.0,16720.0,16710.0,16720.0,96,74,16715,40,16720,24
2016-10-13 11:13:00,11:13:05,11:13:56,39238,39311,16715.0,43,16720.0,19,16715.0,16720.0,16715.0,16715.0,25,-11,16715,43,16720,30
2016-10-13 11:14:00,11:14:03,11:14:57,39320,39396,16715.0,46,16720.0,27,16720.0,16720.0,16715.0,16715.0,69,-19,16715,8,16720,37
2016-10-13 11:15:00,11:15:08,11:15:08,39409,39440,16715.0,15,16720.0,37,16720.0,16720.0,16720.0,16720.0,49,49,16715,42,16725,73
2016-10-13 11:16:00,11:16:02,11:16:59,39467,39658,16720.0,41,16725.0,68,16725.0,16730.0,16725.0,16730.0,233,223,16725,37,16730,7
2016-10-13 11:17:00,11:17:00,11:17:39,39659,39789,16725.0,15,16730.0,61,16730.0,16735.0,16730.0,16735.0,174,122,16730,34,16740,41
2016-10-13 11:18:00,11:18:12,11:18:55,39810,39969,16730.0,20,16735.0,26,16730.0,16735.0,16730.0,16730.0,162,-26,16730,18,16735,49
2016-10-13 11:19:00,11:19:04,11:19:55,39980,40030,16730.0,33,16735.0,40,16730.0,16735.0,16730.0,16735.0,31,-27,16730,27,16735,71
2016-10-13 11:20:00,11:20:06,11:20:57,40043,40109,16730.0,35,16735.0,68,16730.0,16735.0,16730.0,16735.0,74,72,16735,13,16740,49
2016-10-13 11:21:00,11:21:07,11:21:57,40125,40221,16735.0,26,16740.0,43,16740.0,16740.0,16730.0,16730.0,104,-60,16730,31,16740,47
2016-10-13 11:22:00,11:22:02,11:22:52,40223,40368,16730.0,31,16735.0,26,16735.0,16740.0,16735.0,16740.0,160,4,16735,42,16740,19
2016-10-13 11:23:00,11:23:00,11:23:00,0,0,0.0,0,0.0,0,16740.0,16740.0,16740.0,16740.0,0,0,0,0,0,0
2016-10-13 11:24:00,11:24:02,11:24:59,40391,40471,16735.0,64,16740.0,29,16740.0,16740.0,16740.0,16740.0,51,23,16735,61,16745,78
2016-10-13 11:25:00,11:25:09,11:25:43,40488,40584,16740.0,13,16745.0,77,16740.0,16750.0,16740.0,16745.0,147,123,16745,56,16750,33
2016-10-13 11:26:00,11:26:04,11:26:42,40598,40691,16745.0,56,16750.0,42,16745.0,16745.0,16740.0,16745.0,150,35,16740,42,16750,48
2016-10-13 11:27:00,11:27:05,11:27:21,40702,40715,16740.0,41,16745.0,11,16740.0,16745.0,16740.0,16745.0,14,12,16745,2,16750,45
2016-10-13 11:28:00,11:28:04,11:28:59,40730,40836,16740.0,51,16745.0,3,16745.0,16755.0,16745.0,16750.0,133,-81,16750,12,16755,45
2016-10-13 11:29:00,11:29:02,11:29:58,40844,40922,16750.0,15,16755.0,49,16750.0,16750.0,16745.0,16745.0,68,-68,16745,13,16750,39
2016-10-13 11:30:00,11:30:00,11:30:46,40928,41233,16745.0,18,16750.0,36,16745.0,16750.0,16740.0,16745.0,308,-76,16745,36,16750,34
2016-10-13 11:31:00,11:31:16,11:31:58,41272,41361,16745.0,33,16750.0,41,16745.0,16745.0,16740.0,16740.0,54,-54,16740,14,16745,70
2016-10-13 11:32:00,11:32:07,11:32:58,41375,41549,16740.0,22,16745.0,72,16740.0,16740.0,16730.0,16730.0,165,-155,16730,40,16735,16
2016-10-13 11:33:00,11:33:06,11:33:51,41570,41706,16730.0,46,16735.0,24,16735.0,16735.0,16730.0,16735.0,56,11,16735,7,16740,47
2016-10-13 11:34:00,11:34:06,11:34:55,41735,42091,16735.0,51,16740.0,41,16740.0,16755.0,16740.0,16745.0,540,206,16740,48,16745,10
2016-10-13 11:35:00,11:35:12,11:35:57,42120,42313,16740.0,42,16745.0,22,16740.0,16750.0,16740.0,16750.0,236,-14,16750,1,16755,55
2016-10-13 11:36:00,11:36:02,11:36:58,42325,42454,16750.0,18,16755.0,54,16750.0,16755.0,16750.0,16755.0,66,-14,16755,20,16760,40
2016-10-13 11:37:00,11:37:10,11:37:56,42468,42614,16755.0,31,16760.0,38,16760.0,16765.0,16760.0,16765.0,142,140,16760,78,16765,17
2016-10-13 11:38:00,11:38:02,11:38:44,42623,42803,16760.0,77,16765.0,28,16765.0,16765.0,16755.0,16755.0,270,-136,16755,29,16760,45
2016-10-13 11:39:00,11:39:03,11:39:45,42825,43049,16755.0,35,16760.0,53,16755.0,16765.0,16750.0,16750.0,271,-70,16750,2,16755,70
2016-10-13 11:40:00,11:40:07,11:40:45,43080,43153,16750.0,7,16755.0,93,16750.0,16755.0,16750.0,16755.0,84,80,16750,40,16760,86
2016-10-13 11:41:00,11:41:04,11:41:41,43176,43304,16750.0,26,16755.0,31,16755.0,16755.0,16745.0,16750.0,129,-87,16750,13,16755,35
2016-10-13 11:42:00,11:42:06,11:42:38,43326,43401,16750.0,29,16755.0,48,16755.0,16755.0,16750.0,16750.0,91,41,16750,40,16755,24
2016-10-13 11:43:00,11:43:13,11:43:59,43425,43592,16750.0,45,16755.0,26,16755.0,16775.0,16755.0,16775.0,221,217,16775,24,16780,22
2016-10-13 11:44:00,11:44:02,11:44:56,43601,43860,16775.0,30,16780.0,22,16775.0,16790.0,16775.0,16790.0,328,284,16785,67,16790,17
2016-10-13 11:45:00,11:45:00,11:45:57,43871,44108,16785.0,101,16790.0,24,16790.0,16790.0,16780.0,16785.0,355,-215,16780,71,16790,47
2016-10-13 11:46:00,11:46:15,11:46:58,44134,44279,16780.0,65,16785.0,48,16780.0,16780.0,16770.0,16775.0,129,-83,16770,29,16775,49
2016-10-13 11:47:00,11:47:14,11:47:47,44295,44316,16770.0,41,16775.0,46,16775.0,16775.0,16770.0,16770.0,7,-3,16770,28,16775,57
2016-10-13 11:48:00,11:48:11,11:48:54,44331,44522,16770.0,34,16775.0,62,16775.0,16790.0,16775.0,16790.0,156,140,16790,31,16795,40
2016-10-13 11:49:00,11:49:01,11:49:56,44538,44689,16790.0,28,16795.0,52,16790.0,16790.0,16785.0,16785.0,110,-52,16780,46,16785,42
2016-10-13 11:50:00,11:50:00,11:50:58,44702,44904,16780.0,71,16785.0,6,16785.0,16785.0,16780.0,16780.0,162,-27,16780,15,16785,48
2016-10-13 11:51:00,11:51:13,11:51:42,44927,45005,16780.0,24,16785.0,48,16780.0,16795.0,16780.0,16795.0,111,101,16795,30,16800,59
2016-10-13 11:52:00,11:52:01,11:52:44,45027,45279,16795.0,26,16800.0,59,16800.0,16800.0,16790.0,16790.0,368,-241,16785,33,16790,15
2016-10-13 11:53:00,11:53:00,11:53:48,45311,45459,16785.0,46,16790.0,31,16790.0,16790.0,16785.0,16790.0,137,-47,16785,57,16790,4
2016-10-13 11:54:00,11:54:04,11:54:38,45482,45529,16785.0,59,16790.0,15,16790.0,16795.0,16790.0,16795.0,35,33,16795,31,16800,49
2016-10-13 11:55:00,11:55:08,11:55:50,45571,45664,16795.0,34,16800.0,69,16800.0,16800.0,16795.0,16795.0,88,-36,16790,34,16795,48
2016-10-13 11:56:00,11:56:07,11:56:40,45693,45811,16790.0,39,16795.0,57,16790.0,16790.0,16785.0,16785.0,119,-51,16785,1,16790,60
2016-10-13 11:57:00,11:57:15,11:57:54,45834,45939,16785.0,18,16790.0,39,16790.0,16790.0,16785.0,16790.0,91,69,16785,36,16790,28
2016-10-13 11:58:00,11:58:11,11:58:48,45956,46103,16785.0,52,16790.0,35,16785.0,16785.0,16785.0,16785.0,138,-92,16780,54,16785,8
2016-10-13 11:59:00,11:59:21,11:59:40,46136,46193,16780.0,64,16785.0,34,16780.0,16780.0,16780.0,16780.0,50,-50,16780,53,16785,22
2016-10-13 12:00:00,12:00:33,12:00:48,46244,46301,16780.0,51,16785.0,41,16780.0,16780.0,16780.0,16780.0,60,-28,16775,79,16780,12
2016-10-13 12:01:00,12:01:08,12:01:52,46331,46446,16775.0,73,16780.0,20,16780.0,16780.0,16775.0,16775.0,94,-40,16775,36,16780,37
2016-10-13 12:02:00,12:02:14,12:02:51,46474,46597,16775.0,36,16780.0,43,16775.0,16775.0,16770.0,16775.0,107,-104,16770,39,16775,29
2016-10-13 12:03:00,12:03:13,12:03:32,46623,46715,16770.0,50,16775.0,42,16770.0,16770.0,16765.0,16770.0,110,-24,16765,54,16770,7
2016-10-13 12:04:00,12:04:15,12:04:51,46769,46924,16765.0,39,16770.0,61,16765.0,16770.0,16765.0,16765.0,140,27,16765,32,16770,21
2016-10-13 12:05:00,12:05:04,12:05:50,46937,47062,16765.0,38,16770.0,21,16770.0,16775.0,16770.0,16775.0,95,21,16770,36,16775,15
2016-10-13 12:06:00,12:06:01,12:06:11,47073,47099,16770.0,46,16775.0,22,16775.0,16775.0,16775.0,16775.0,24,16,16775,5,16780,64
2016-10-13 12:07:00,12:07:11,12:07:51,47155,47195,16775.0,16,16780.0,51,16775.0,16775.0,16775.0,16775.0,31,-5,16770,47,16780,56
2016-10-13 12:08:00,12:08:15,12:08:15,47211,47211,16770.0,47,16775.0,24,16775.0,16775.0,16775.0,16775.0,1,1,16770,44,16775,19
2016-10-13 12:09:00,12:09:01,12:09:01,47240,47242,16770.0,46,16775.0,24,16775.0,16775.0,16775.0,16775.0,3,3,16770,45,16775,19
2016-10-13 12:10:00,12:10:06,12:10:49,47266,47295,16770.0,39,16775.0,45,16775.0,16775.0,16775.0,16775.0,33,1,16770,48,16775,5
2016-10-13 12:11:00,12:11:48,12:11:55,47336,47364,16770.0,33,16775.0,40,16770.0,16770.0,16770.0,16770.0,31,-31,16765,46,16770,16
2016-10-13 12:12:00,12:12:28,12:12:28,47400,47408,16765.0,54,16770.0,19,16770.0,16770.0,16770.0,16770.0,19,19,16770,53,16775,28
2016-10-13 12:13:00,12:13:03,12:13:43,47426,47544,16770.0,56,16775.0,31,16775.0,16775.0,16770.0,16770.0,119,5,16765,54,16770,5
2016-10-13 12:14:00,12:14:06,12:14:59,47570,47686,16765.0,58,16770.0,18,16770.0,16770.0,16770.0,16770.0,104,14,16765,58,16775,68
2016-10-13 12:15:00,12:15:01,12:15:51,47690,47737,16765.0,55,16770.0,12,16770.0,16770.0,16765.0,16770.0,29,25,16770,9,16775,60
2016-10-13 12:16:00,12:16:02,12:16:53,47752,47847,16770.0,37,16775.0,59,16775.0,16775.0,16775.0,16775.0,102,46,16775,42,16780,54
2016-10-13 12:17:00,12:17:20,12:17:59,47868,48005,16775.0,59,16780.0,54,16780.0,16790.0,16780.0,16785.0,176,162,16785,44,16790,45
2016-10-13 12:18:00,12:18:25,12:18:33,48022,48060,16785.0,65,16790.0,40,16790.0,16790.0,16790.0,16790.0,47,23,16785,47,16790,57
2016-10-13 12:19:00,12:19:00,12:19:00,0,0,0.0,0,0.0,0,16790.0,16790.0,16790.0,16790.0,0,0,0,0,0,0
2016-10-13 12:20:00,12:20:01,12:20:54,48154,48476,16785.0,47,16790.0,71,16790.0,16790.0,16760.0,16760.0,447,-191,16760,9,16765,57
2016-10-13 12:21:00,12:21:16,12:21:46,48499,48548,16760.0,32,16765.0,63,16760.0,16760.0,16760.0,16760.0,49,-49,16760,5,16765,66
2016-10-13 12:22:00,12:22:03,12:22:47,48569,48632,16760.0,9,16765.0,68,16760.0,16760.0,16760.0,16760.0,28,-28,16760,10,16765,57
2016-10-13 12:23:00,12:23:08,12:23:34,48651,48679,16760.0,32,16765.0,53,16760.0,16760.0,16760.0,16760.0,24,-24,16760,26,16765,76
2016-10-13 12:24:00,12:24:04,12:24:53,48709,48817,16760.0,32,16765.0,64,16765.0,16775.0,16765.0,16770.0,130,108,16765,31,16770,70
2016-10-13 12:25:00,12:25:10,12:25:58,48823,48880,16765.0,31,16770.0,78,16770.0,16770.0,16765.0,16765.0,41,-3,16760,39,16765,25
2016-10-13 12:26:00,12:26:49,12:26:49,48909,48910,16760.0,36,16765.0,36,16760.0,16760.0,16760.0,16760.0,2,-2,16760,33,16765,37
2016-10-13 12:27:00,12:27:08,12:27:32,48918,48996,16760.0,32,16765.0,36,16765.0,16765.0,16755.0,16755.0,56,-22,16755,26,16760,62
2016-10-13 12:28:00,12:28:00,12:28:35,49020,49064,16755.0,42,16760.0,32,16760.0,16760.0,16760.0,16760.0,54,34,16760,24,16765,40
2016-10-13 12:29:00,12:29:07,12:29:57,49075,49109,16760.0,27,16765.0,36,16765.0,16765.0,16765.0,16765.0,19,19,16760,28,16765,33
2016-10-13 12:30:00,12:30:01,12:30:50,49111,49241,16760.0,34,16765.0,33,16765.0,16765.0,16755.0,16755.0,167,-21,16755,7,16760,108
2016-10-13 12:31:00,12:31:01,12:31:45,49255,49318,16755.0,21,16760.0,107,16755.0,16755.0,16750.0,16750.0,62,-62,16750,21,16755,108
2016-10-13 12:32:00,12:32:02,12:32:36,49331,49367,16750.0,27,16755.0,106,16750.0,16750.0,16750.0,16750.0,8,-8,16750,21,16755,106
2016-10-13 12:33:00,12:33:02,12:33:59,49391,49495,16750.0,57,16755.0,105,16755.0,16755.0,16745.0,16745.0,77,-61,16745,11,16750,104
2016-10-13 12:34:00,12:34:04,12:34:36,49504,49615,16745.0,12,16750.0,104,16745.0,16745.0,16735.0,16740.0,107,-99,16735,38,16740,86
2016-10-13 12:35:00,12:35:08,12:35:26,49653,49732,16735.0,61,16740.0,64,16740.0,16740.0,16740.0,16740.0,125,35,16740,31,16745,38
2016-10-13 12:36:00,12:36:12,12:36:12,49780,49803,16740.0,64,16745.0,64,16740.0,16740.0,16740.0,16740.0,50,-50,16740,13,16745,68
2016-10-13 12:37:00,12:37:26,12:37:51,49848,49920,16740.0,29,16745.0,68,16745.0,16745.0,16740.0,16745.0,94,14,16745,9,16750,86
2016-10-13 12:38:00,12:38:17,12:38:38,49944,49987,16745.0,37,16750.0,82,16750.0,16750.0,16750.0,16750.0,69,51,16745,27,16750,52
2016-10-13 12:39:00,12:39:21,12:39:51,50020,50082,16745.0,13,16750.0,72,16745.0,16745.0,16745.0,16745.0,52,-40,16740,21,16745,34
2016-10-13 12:40:00,12:40:03,12:40:52,50102,50196,16740.0,42,16745.0,45,16745.0,16745.0,16740.0,16745.0,58,42,16745,9,16750,56
2016-10-13 12:41:00,12:41:00,12:41:44,50206,50276,16745.0,8,16750.0,64,16745.0,16750.0,16745.0,16750.0,78,16,16750,8,16755,72
2016-10-13 12:42:00,12:42:02,12:42:59,50293,50371,16750.0,24,16755.0,62,16755.0,16755.0,16755.0,16755.0,61,61,16755,15,16760,70
2016-10-13 12:43:00,12:43:02,12:43:23,50377,50433,16755.0,16,16760.0,68,16760.0,16760.0,16755.0,16755.0,52,2,16755,6,16760,67
2016-10-13 12:44:00,12:44:00,12:44:00,0,0,0.0,0,0.0,0,16755.0,16755.0,16755.0,16755.0,0,0,0,0,0,0
2016-10-13 12:45:00,12:45:04,12:45:49,50476,50550,16755.0,38,16760.0,72,16760.0,16760.0,16755.0,16760.0,111,55,16760,47,16765,59
2016-10-13 12:46:00,12:46:01,12:46:52,50571,50720,16760.0,41,16765.0,60,16760.0,16765.0,16760.0,16765.0,139,88,16760,41,16765,19
2016-10-13 12:47:00,12:47:06,12:47:54,50754,50833,16760.0,42,16765.0,20,16765.0,16770.0,16765.0,16765.0,56,20,16760,33,16765,39
2016-10-13 12:48:00,12:48:28,12:48:28,50880,50895,16760.0,40,16765.0,50,16760.0,16760.0,16760.0,16760.0,25,-25,16760,21,16765,57
2016-10-13 12:49:00,12:49:03,12:49:57,50934,51033,16760.0,19,16765.0,56,16760.0,16765.0,16755.0,16755.0,45,-35,16755,31,16760,68
2016-10-13 12:50:00,12:50:02,12:50:54,51037,51105,16755.0,18,16760.0,68,16755.0,16755.0,16755.0,16755.0,57,3,16755,40,16760,62
2016-10-13 12:51:00,12:51:01,12:51:47,51117,51187,16755.0,21,16760.0,99,16760.0,16760.0,16755.0,16760.0,128,36,16760,4,16765,89
2016-10-13 12:52:00,12:52:31,12:52:42,51228,51236,16760.0,20,16765.0,63,16760.0,16765.0,16760.0,16765.0,2,0,16760,28,16765,61
2016-10-13 12:53:00,12:53:03,12:53:38,51251,51290,16760.0,19,16765.0,63,16765.0,16765.0,16760.0,16760.0,40,34,16760,29,16765,42
2016-10-13 12:54:00,12:54:02,12:54:28,51304,51363,16760.0,37,16765.0,35,16765.0,16770.0,16765.0,16765.0,52,8,16760,41,16770,62
2016-10-13 12:55:00,12:55:48,12:55:57,51426,51479,16765.0,39,16770.0,37,16770.0,16770.0,16770.0,16770.0,61,41,16765,60,16775,58
2016-10-13 12:56:00,12:56:00,12:56:06,51485,51506,16770.0,5,16775.0,99,16770.0,16770.0,16770.0,16770.0,12,2,16765,51,16770,62
2016-10-13 12:57:00,12:57:02,12:57:53,51567,51636,16765.0,54,16770.0,59,16770.0,16770.0,16770.0,16770.0,65,37,16770,31,16775,61
2016-10-13 12:58:00,12:58:03,12:58:57,51651,51833,16770.0,26,16775.0,65,16770.0,16775.0,16765.0,16770.0,156,53,16765,59,16770,18
2016-10-13 12:59:00,12:59:11,12:59:37,51844,51931,16765.0,62,16770.0,30,16770.0,16770.0,16770.0,16770.0,90,47,16765,55,16770,19
2016-10-13 13:00:00,13:00:00,13:00:23,51956,51988,16765.0,49,16770.0,38,16770.0,16770.0,16765.0,16765.0,13,9,16765,48,16770,51
2016-10-13 13:01:00,13:01:01,13:01:59,52031,52262,16765.0,40,16770.0,59,16765.0,16765.0,16750.0,16750.0,228,-104,16750,38,16755,16
2016-10-13 13:02:00,13:02:01,13:02:43,52268,52339,16750.0,35,16755.0,25,16750.0,16755.0,16750.0,16755.0,48,24,16755,4,16760,36
2016-10-13 13:03:00,13:03:01,13:03:40,52360,52434,16755.0,9,16760.0,41,16755.0,16755.0,16750.0,16755.0,41,-1,16755,7,16760,38
2016-10-13 13:04:00,13:04:10,13:04:55,52452,52603,16755.0,32,16760.0,36,16760.0,16770.0,16755.0,16770.0,129,73,16765,40,16770,17
2016-10-13 13:05:00,13:05:02,13:05:37,52618,52726,16765.0,64,16770.0,14,16770.0,16775.0,16770.0,16770.0,97,-65,16770,2,16775,59
2016-10-13 13:06:00,13:06:02,13:06:53,52756,52851,16770.0,29,16775.0,47,16770.0,16770.0,16770.0,16770.0,44,8,16770,12,16775,50
2016-10-13 13:07:00,13:07:00,13:07:29,52861,52885,16770.0,4,16775.0,56,16770.0,16770.0,16770.0,16770.0,11,-7,16770,16,16775,44
2016-10-13 13:08:00,13:08:27,13:08:47,52927,52961,16770.0,45,16775.0,36,16775.0,16780.0,16775.0,16780.0,30,28,16775,55,16780,51
2016-10-13 13:09:00,13:09:02,13:09:40,52970,53091,16775.0,52,16780.0,54,16780.0,16785.0,16780.0,16785.0,117,104,16780,42,16785,54
2016-10-13 13:10:00,13:10:02,13:10:21,53112,53179,16780.0,48,16785.0,53,16785.0,16785.0,16785.0,16785.0,42,16,16780,73,16785,42
2016-10-13 13:11:00,13:11:04,13:11:04,53227,53241,16780.0,41,16785.0,45,16780.0,16780.0,16780.0,16780.0,37,-37,16775,19,16780,65
2016-10-13 13:12:00,13:12:19,13:12:19,53311,53311,16775.0,41,16780.0,42,16780.0,16780.0,16780.0,16780.0,1,1,16775,42,16780,40
2016-10-13 13:13:00,13:13:10,13:13:10,53358,53359,16775.0,47,16780.0,40,16780.0,16780.0,16780.0,16780.0,2,2,16775,67,16780,22
2016-10-13 13:14:00,13:14:00,13:14:56,53390,53529,16775.0,67,16780.0,32,16780.0,16780.0,16780.0,16780.0,117,-21,16780,38,16785,33
2016-10-13 13:15:00,13:15:27,13:15:27,53549,53550,16780.0,39,16785.0,40,16785.0,16785.0,16780.0,16780.0,3,1,16780,40,16785,38
2016-10-13 13:16:00,13:16:05,13:16:28,53579,53637,16780.0,22,16785.0,62,16780.0,16780.0,16775.0,16775.0,43,-43,16775,43,16780,57
2016-10-13 13:17:00,13:17:00,13:17:00,53656,53656,16775.0,48,16780.0,57,16780.0,16780.0,16780.0,16780.0,2,2,16775,50,16780,55
2016-10-13 13:18:00,13:18:00,13:18:32,53675,53695,16775.0,61,16780.0,48,16780.0,16780.0,16775.0,16780.0,7,3,16775,63,16780,41
2016-10-13 13:19:00,13:19:04,13:19:56,53714,53847,16775.0,59,16780.0,61,16780.0,16780.0,16765.0,16765.0,130,-104,16760,41,16765,16
2016-10-13 13:20:00,13:20:08,13:20:41,53866,54003,16760.0,31,16765.0,60,16765.0,16770.0,16765.0,16765.0,164,-13,16760,64,16770,94
2016-10-13 13:21:00,13:21:10,13:21:48,54028,54094,16765.0,36,16770.0,94,16770.0,16770.0,16765.0,16765.0,49,-45,16760,59,16770,90
2016-10-13 13:22:00,13:22:16,13:22:56,54113,54144,16765.0,98,16770.0,77,16770.0,16770.0,16765.0,16765.0,9,-5,16765,80,16770,64
2016-10-13 13:23:00,13:23:02,13:23:56,54150,54167,16765.0,78,16770.0,63,16770.0,16770.0,16770.0,16770.0,5,5,16765,87,16770,59
2016-10-13 13:24:00,13:24:05,13:24:51,54169,54200,16765.0,84,16770.0,59,16770.0,16770.0,16765.0,16765.0,10,-6,16765,48,16770,56
2016-10-13 13:25:00,13:25:10,13:25:33,54217,54251,16765.0,51,16770.0,62,16770.0,16770.0,16765.0,16765.0,11,-3,16765,63,16770,59
2016-10-13 13:26:00,13:26:08,13:26:52,54289,54334,16765.0,43,16770.0,63,16770.0,16770.0,16765.0,16765.0,10,-4,16765,44,16770,65
2016-10-13 13:27:00,13:27:01,13:27:59,54344,54516,16765.0,40,16770.0,65,16765.0,16770.0,16765.0,16770.0,201,93,16770,12,16775,63
2016-10-13 13:28:00,13:28:29,13:28:33,54548,54577,16770.0,83,16775.0,22,16775.0,16780.0,16775.0,16775.0,46,36,16775,48,16780,61
2016-10-13 13:29:00,13:29:01,13:29:52,54599,54819,16775.0,58,16780.0,69,16780.0,16780.0,16770.0,16770.0,219,-23,16770,41,16775,30
2016-10-13 13:30:00,13:30:19,13:30:48,54862,54941,16770.0,45,16775.0,19,16775.0,16775.0,16765.0,16765.0,71,-45,16765,52,16770,48
2016-10-13 13:31:00,13:31:04,13:31:35,54959,55040,16765.0,83,16770.0,39,16770.0,16770.0,16765.0,16770.0,67,-38,16765,33,16770,44
2016-10-13 13:32:00,13:32:17,13:32:24,55067,55080,16765.0,44,16770.0,37,16765.0,16765.0,16765.0,16765.0,9,-9,16765,42,16770,40
2016-10-13 13:33:00,13:33:03,13:33:50,55106,55203,16765.0,44,16770.0,42,16770.0,16775.0,16765.0,16770.0,68,-2,16770,64,16775,28
2016-10-13 13:34:00,13:34:01,13:34:55,55223,55448,16770.0,65,16775.0,42,16775.0,16775.0,16765.0,16765.0,288,-12,16765,10,16770,103
2016-10-13 13:35:00,13:35:02,13:35:14,55456,55488,16765.0,9,16770.0,99,16765.0,16765.0,16765.0,16765.0,23,-23,16765,33,16770,84
2016-10-13 13:36:00,13:36:35,13:36:57,55573,55707,16765.0,77,16770.0,99,16765.0,16775.0,16765.0,16770.0,195,21,16770,3,16775,72
2016-10-13 13:37:00,13:37:02,13:37:37,55717,55807,16770.0,6,16775.0,66,16770.0,16770.0,16770.0,16770.0,108,-108,16770,15,16775,57
2016-10-13 13:38:00,13:38:04,13:38:49,55837,56085,16770.0,16,16775.0,58,16770.0,16780.0,16770.0,16770.0,281,75,16770,48,16775,45
2016-10-13 13:39:00,13:39:01,13:39:57,56100,56270,16770.0,34,16775.0,85,16775.0,16775.0,16765.0,16765.0,173,-17,16765,60,16770,26
2016-10-13 13:40:00,13:40:00,13:40:00,0,0,0.0,0,0.0,0,16765.0,16765.0,16765.0,16765.0,0,0,0,0,0,0
2016-10-13 13:41:00,13:41:06,13:41:58,56340,56531,16765.0,78,16770.0,33,16770.0,16770.0,16755.0,16755.0,233,-227,16755,51,16760,63
2016-10-13 13:42:00,13:42:00,13:42:59,56535,56598,16755.0,47,16760.0,63,16760.0,16760.0,16755.0,16760.0,18,2,16755,79,16760,30
2016-10-13 13:43:00,13:43:01,13:43:44,56603,56683,16755.0,60,16760.0,42,16760.0,16760.0,16755.0,16760.0,36,30,16755,75,16760,22
2016-10-13 13:44:00,13:44:00,13:44:58,56708,56885,16755.0,71,16760.0,44,16755.0,16760.0,16755.0,16760.0,194,-22,16760,24,16765,48
2016-10-13 13:45:00,13:45:00,13:45:36,56890,57075,16760.0,35,16765.0,48,16760.0,16765.0,16760.0,16765.0,145,49,16760,45,16765,29
2016-10-13 13:46:00,13:46:06,13:46:44,57113,57187,16760.0,48,16765.0,58,16765.0,16765.0,16760.0,16760.0,47,-39,16760,25,16765,59
2016-10-13 13:47:00,13:47:13,13:47:55,57218,57351,16760.0,37,16765.0,59,16765.0,16765.0,16755.0,16755.0,169,-105,16750,39,16755,44
2016-10-13 13:48:00,13:48:01,13:48:58,57365,57541,16750.0,40,16755.0,31,16755.0,16760.0,16750.0,16750.0,154,-44,16750,27,16755,30
2016-10-13 13:49:00,13:49:04,13:49:58,57549,58001,16750.0,35,16755.0,26,16750.0,16750.0,16735.0,16735.0,715,-203,16735,8,16740,63
2016-10-13 13:50:00,13:50:00,13:50:25,58004,58110,16735.0,8,16740.0,63,16735.0,16735.0,16730.0,16735.0,80,-18,16730,71,16735,7
2016-10-13 13:51:00,13:51:04,13:51:51,58170,58363,16730.0,69,16735.0,60,16735.0,16740.0,16730.0,16735.0,150,-74,16730,36,16735,46
2016-10-13 13:52:00,13:52:02,13:52:56,58369,58602,16730.0,40,16735.0,46,16735.0,16745.0,16735.0,16740.0,302,144,16735,66,16745,67
2016-10-13 13:53:00,13:53:03,13:53:53,58612,58767,16740.0,44,16745.0,59,16745.0,16750.0,16745.0,16750.0,178,163,16745,4,16750,93
2016-10-13 13:54:00,13:54:00,13:54:58,58780,58914,16745.0,51,16750.0,51,16745.0,16750.0,16740.0,16740.0,145,-119,16740,50,16745,62
2016-10-13 13:55:00,13:55:00,13:55:56,58917,59297,16740.0,50,16745.0,62,16745.0,16745.0,16735.0,16740.0,455,-69,16735,78,16740,7
2016-10-13 13:56:00,13:56:00,13:56:51,59309,59464,16735.0,97,16740.0,9,16740.0,16745.0,16740.0,16745.0,120,-86,16740,23,16745,68
2016-10-13 13:57:00,13:57:01,13:57:48,59474,59633,16740.0,30,16745.0,65,16740.0,16745.0,16740.0,16740.0,199,-95,16740,67,16745,69
2016-10-13 13:58:00,13:58:05,13:58:59,59658,59967,16740.0,78,16745.0,68,16745.0,16760.0,16745.0,16755.0,486,233,16750,101,16755,19
2016-10-13 13:59:00,13:59:02,13:59:59,59977,60521,16750.0,89,16755.0,67,16750.0,16765.0,16750.0,16755.0,920,-62,16750,116,16760,75
2016-10-13 14:00:00,14:00:00,14:00:59,60524,61137,16750.0,116,16760.0,75,16755.0,16770.0,16750.0,16765.0,939,100,16765,7,16770,85
2016-10-13 14:01:00,14:01:00,14:01:58,61138,61614,16760.0,131,16765.0,3,16765.0,16785.0,16765.0,16775.0,856,116,16770,91,16775,141
2016-10-13 14:02:00,14:02:00,14:02:58,61621,61842,16770.0,92,16775.0,127,16775.0,16775.0,16770.0,16775.0,228,142,16770,104,16775,66
2016-10-13 14:03:00,14:03:00,14:03:58,61845,62083,16770.0,104,16775.0,66,16775.0,16775.0,16765.0,16770.0,403,-77,16770,12,16775,134
2016-10-13 14:04:00,14:04:00,14:04:59,62089,62296,16770.0,97,16775.0,102,16775.0,16785.0,16775.0,16785.0,346,246,16785,51,16790,105
2016-10-13 14:05:00,14:05:00,14:05:59,62297,62808,16775.0,90,16780.0,104,16785.0,16810.0,16785.0,16805.0,933,9,16805,40,16810,92
2016-10-13 14:06:00,14:06:01,14:06:59,62814,63246,16805.0,44,16810.0,83,16810.0,16820.0,16795.0,16795.0,709,-245,16795,1,16800,81
2016-10-13 14:07:00,14:07:13,14:07:39,63266,63365,16795.0,62,16800.0,67,16795.0,16805.0,16795.0,16805.0,115,87,16800,64,16805,90
2016-10-13 14:08:00,14:08:03,14:08:52,63397,63665,16800.0,94,16805.0,74,16805.0,16810.0,16800.0,16805.0,535,97,16805,41,16810,105
