,ST,ET,sidx,eidx,bB,bBS,bA,bAS,O,H,L,C,V,OF,eB,eBS,eA,eAS
2016-07-21 08:00:00,08:00:00,08:00:58,2609,2946,16870.0,4,16875.0,31,16870.0,16875.0,16865.0,16870.0,380,10,16865,25,16870,3
2016-07-21 08:01:00,08:01:03,08:01:59,2961,3324,16865.0,28,16870.0,26,16870.0,16870.0,16845.0,16855.0,427,-94,16850,30,16855,3
2016-07-21 08:02:00,08:02:00,08:02:59,3329,3609,16850.0,34,16855.0,3,16850.0,16870.0,16850.0,16865.0,256,94,16860,30,16865,13
2016-07-21 08:03:00,08:03:00,08:03:58,3614,3887,16860.0,31,16865.0,8,16865.0,16890.0,16865.0,16890.0,328,290,16885,23,16890,35
2016-07-21 08:04:00,08:04:00,08:04:58,3892,4126,16885.0,23,16890.0,37,16885.0,16890.0,16880.0,16880.0,245,-72,16880,30,16885,38
2016-07-21 08:05:00,08:05:03,08:05:59,4135,4381,16880.0,30,16885.0,42,16885.0,16890.0,16880.0,16885.0,206,-92,16880,31,16890,181
2016-07-21 08:06:00,08:06:00,08:06:59,4383,4638,16880.0,31,16890.0,187,16890.0,16890.0,16880.0,16885.0,258,30,16880,33,16885,3
2016-07-21 08:07:00,08:07:01,08:07:59,4641,4929,16880.0,39,16885.0,5,16885.0,16895.0,16885.0,16890.0,469,214,16885,30,16890,2
2016-07-21 08:08:00,08:08:00,08:08:56,4932,5121,16885.0,30,16890.0,2,16890.0,16895.0,16890.0,16890.0,104,26,16885,35,16890,37
2016-07-21 08:09:00,08:09:03,08:09:49,5136,5246,16885.0,22,16890.0,52,16885.0,16890.0,16885.0,16885.0,65,-17,16885,15,16890,38
2016-07-21 08:10:00,08:10:01,08:10:58,5266,5457,16885.0,20,16890.0,39,16885.0,16890.0,16880.0,16880.0,179,84,16880,81,16885,6
2016-07-21 08:11:00,08:11:02,08:11:59,5471,5636,16880.0,79,16885.0,33,16885.0,16885.0,16870.0,16875.0,169,-139,16870,35,16875,51
2016-07-21 08:12:00,08:12:00,08:12:52,5639,5971,16870.0,35,16875.0,51,16870.0,16870.0,16865.0,16865.0,304,-106,16865,29,16870,21
2016-07-21 08:13:00,08:13:02,08:13:58,5979,6219,16865.0,31,16870.0,26,16870.0,16870.0,16865.0,16870.0,173,89,16870,1,16875,40
2016-07-21 08:14:00,08:14:04,08:14:55,6233,6341,16870.0,24,16875.0,32,16875.0,16875.0,16870.0,16875.0,37,33,16870,29,16875,12
2016-07-21 08:15:00,08:15:00,08:15:59,6347,6590,16870.0,29,16875.0,24,16870.0,16885.0,16865.0,16875.0,236,-73,16870,41,16880,40
2016-07-21 08:16:00,08:16:14,08:16:46,6608,6763,16870.0,36,16875.0,21,16875.0,16885.0,16875.0,16885.0,168,101,16880,31,16885,11
2016-07-21 08:17:00,08:17:04,08:17:52,6786,6955,16880.0,17,16885.0,22,16880.0,16885.0,16870.0,16875.0,156,-66,16870,36,16875,21
2016-07-21 08:18:00,08:18:11,08:18:59,6983,7095,16870.0,23,16875.0,37,16870.0,16875.0,16870.0,16870.0,96,-52,16870,36,16875,20
2016-07-21 08:19:00,08:19:00,08:19:55,7100,7228,16870.0,38,16875.0,18,16875.0,16875.0,16870.0,16875.0,80,-20,16870,32,16875,20
2016-07-21 08:20:00,08:20:11,08:20:56,7243,7421,16870.0,35,16875.0,29,16870.0,16880.0,16870.0,16870.0,138,-16,16865,30,16870,28
2016-07-21 08:21:00,08:21:01,08:21:56,7436,7545,16865.0,40,16870.0,25,16870.0,16880.0,16870.0,16880.0,51,33,16875,54,16880,23
2016-07-21 08:22:00,08:22:03,08:22:46,7550,7710,16875.0,54,16880.0,26,16875.0,16875.0,16870.0,16875.0,142,-58,16870,35,16875,10
2016-07-21 08:23:00,08:23:02,08:23:46,7731,7905,16870.0,30,16875.0,33,16870.0,16875.0,16870.0,16875.0,126,0,16870,45,16875,6
2016-07-21 08:24:00,08:24:02,08:24:59,7929,8078,16870.0,31,16875.0,36,16875.0,16880.0,16870.0,16875.0,104,-12,16875,23,16880,30
2016-07-21 08:25:00,08:25:02,08:25:59,8084,8268,16875.0,25,16880.0,33,16880.0,16880.0,16860.0,16860.0,211,-165,16860,60,16865,20
2016-07-21 08:26:00,08:26:06,08:26:56,8279,8525,16860.0,56,16865.0,23,16860.0,16860.0,16855.0,16855.0,242,-114,16855,11,16860,30
2016-07-21 08:27:00,08:27:03,08:27:51,8535,8662,16855.0,11,16860.0,35,16855.0,16860.0,16850.0,16860.0,105,25,16855,27,16860,10
2016-07-21 08:28:00,08:28:01,08:28:58,8676,8900,16855.0,26,16860.0,14,16855.0,16865.0,16850.0,16855.0,169,-15,16850,48,16855,1
2016-07-21 08:29:00,08:29:00,08:29:54,8906,8989,16855.0,1,16860.0,40,16855.0,16855.0,16855.0,16855.0,50,-14,16855,14,16860,43
2016-07-21 08:30:00,08:30:00,08:30:57,8994,9206,16855.0,15,16860.0,46,16855.0,16865.0,16855.0,16865.0,177,73,16860,27,16865,14
2016-07-21 08:31:00,08:31:03,08:31:54,9216,9409,16860.0,25,16865.0,10,16860.0,16860.0,16850.0,16855.0,158,-72,16855,7,16860,25
2016-07-21 08:32:00,08:32:02,08:32:46,9417,9500,16855.0,7,16860.0,27,16855.0,16860.0,16855.0,16860.0,31,-27,16855,18,16860,16
2016-07-21 08:33:00,08:33:00,08:33:59,9515,9609,16855.0,20,16860.0,22,16855.0,16860.0,16855.0,16855.0,40,-32,16850,30,16860,30
2016-07-21 08:34:00,08:34:00,08:34:54,9614,9732,16855.0,5,16860.0,27,16860.0,16865.0,16855.0,16860.0,47,3,16860,24,16865,24
2016-07-21 08:35:00,08:35:04,08:35:59,9738,9892,16860.0,21,16865.0,25,16860.0,16860.0,16850.0,16855.0,164,-82,16855,2,16855,21
2016-07-21 08:36:00,08:36:01,08:36:58,9894,10038,16855.0,2,16860.0,42,16855.0,16860.0,16855.0,16860.0,174,121,16855,25,16860,3
2016-07-21 08:37:00,08:37:00,08:37:49,10045,10172,16855.0,24,16860.0,3,16860.0,16865.0,16860.0,16860.0,112,33,16855,50,16860,8
2016-07-21 08:38:00,08:38:07,08:38:59,10184,10439,16855.0,49,16860.0,19,16860.0,16865.0,16855.0,16860.0,280,-57,16855,39,16860,29
2016-07-21 08:39:00,08:39:00,08:39:57,10442,10590,16855.0,39,16860.0,29,16860.0,16865.0,16860.0,16865.0,218,-30,16865,17,16870,62
2016-07-21 08:40:00,08:40:00,08:40:44,10595,10699,16865.0,10,16870.0,62,16870.0,16870.0,16865.0,16870.0,81,5,16865,44,16870,20
2016-07-21 08:41:00,08:41:11,08:41:58,10723,10928,16865.0,42,16870.0,31,16870.0,16875.0,16860.0,16860.0,267,-154,16855,36,16860,4
2016-07-21 08:42:00,08:42:00,08:42:59,10932,11190,16855.0,36,16860.0,6,16855.0,16870.0,16855.0,16870.0,301,47,16870,11,16875,30
2016-07-21 08:43:00,08:43:00,08:43:48,11195,11346,16870.0,12,16875.0,32,16870.0,16880.0,16865.0,16865.0,157,28,16865,37,16870,49
2016-07-21 08:44:00,08:44:00,08:44:56,11365,11496,16865.0,28,16870.0,33,16870.0,16870.0,16865.0,16865.0,79,15,16865,5,16870,37
2016-07-21 08:45:00,08:45:00,08:45:55,11498,11652,16860.0,34,16870.0,37,16865.0,16875.0,16865.0,16875.0,125,4,16875,19,16875,1
2016-07-21 08:46:00,08:46:00,08:46:42,11660,11951,16870.0,27,16875.0,4,16875.0,16890.0,16875.0,16880.0,343,181,16880,7,16885,26
2016-07-21 08:47:00,08:47:00,08:47:56,11973,12105,16880.0,40,16885.0,27,16880.0,16885.0,16880.0,16880.0,101,-34,16880,7,16885,26
2016-07-21 08:48:00,08:48:09,08:48:09,12123,12126,16880.0,10,16885.0,26,16880.0,16880.0,16880.0,16880.0,6,-6,16880,7,16885,27
2016-07-21 08:49:00,08:49:16,08:49:56,12193,12337,16880.0,16,16885.0,30,16885.0,16890.0,16885.0,16885.0,171,22,16880,27,16890,43
2016-07-21 08:50:00,08:50:23,08:50:59,12368,12469,16880.0,21,16885.0,27,16880.0,16890.0,16880.0,16885.0,117,61,16880,22,16885,3
2016-07-21 08:51:00,08:51:06,08:51:56,12479,12583,16880.0,24,16885.0,19,16885.0,16885.0,16875.0,16875.0,65,-30,16870,41,16880,42
2016-07-21 08:52:00,08:52:04,08:52:40,12592,12700,16875.0,26,16880.0,38,16875.0,16880.0,16875.0,16880.0,79,-49,16875,28,16880,16
2016-07-21 08:53:00,08:53:17,08:53:58,12726,12781,16875.0,29,16880.0,29,16880.0,16880.0,16880.0,16880.0,48,-20,16880,4,16885,24
2016-07-21 08:54:00,08:54:02,08:54:59,12788,12987,16880.0,4,16885.0,28,16880.0,16885.0,16875.0,16875.0,154,-47,16870,29,16880,27
2016-07-21 08:55:00,08:55:26,08:55:53,13026,13130,16875.0,35,16880.0,18,16880.0,16890.0,16880.0,16885.0,83,-13,16880,31,16890,49
2016-07-21 08:56:00,08:56:01,08:56:47,13141,13232,16880.0,29,16885.0,11,16885.0,16890.0,16880.0,16890.0,39,33,16885,26,16890,45
2016-07-21 08:57:00,08:57:07,08:57:37,13254,13331,16885.0,37,16890.0,39,16890.0,16890.0,16890.0,16890.0,68,68,16885,60,16890,6
2016-07-21 08:58:00,08:58:00,08:58:48,13356,13630,16885.0,50,16890.0,22,16890.0,16905.0,16885.0,16885.0,458,217,16880,23,16885,22
2016-07-21 08:59:00,08:59:26,08:59:51,13672,13767,16880.0,59,16885.0,16,16885.0,16895.0,16885.0,16895.0,58,42,16890,33,16895,12
2016-07-21 09:00:00,09:00:02,09:00:58,13785,13926,16890.0,33,16895.0,7,16895.0,16900.0,16895.0,16895.0,97,42,16895,2,16900,36
2016-07-21 09:01:00,09:01:00,09:01:59,13929,14247,16890.0,37,16895.0,4,16895.0,16910.0,16895.0,16905.0,459,210,16900,23,16905,29
2016-07-21 09:02:00,09:02:02,09:02:52,14256,14459,16900.0,40,16905.0,24,16905.0,16915.0,16905.0,16910.0,174,144,16905,32,16910,13
2016-07-21 09:03:00,09:03:05,09:03:59,14480,14760,16905.0,36,16910.0,14,16910.0,16915.0,16905.0,16915.0,235,3,16910,15,16915,26
2016-07-21 09:04:00,09:04:02,09:04:56,14768,14937,16910.0,31,16915.0,25,16915.0,16920.0,16915.0,16915.0,134,54,16910,43,16920,51
2016-07-21 09:05:00,09:05:00,09:05:56,14942,15301,16910.0,43,16915.0,4,16915.0,16930.0,16905.0,16905.0,385,106,16900,26,16905,7
2016-07-21 09:06:00,09:06:01,09:06:51,15310,15430,16900.0,23,16905.0,11,16905.0,16910.0,16905.0,16905.0,57,11,16900,29,16905,2
2016-07-21 09:07:00,09:07:00,09:07:56,15444,15587,16900.0,23,16905.0,15,16905.0,16910.0,16905.0,16910.0,81,73,16905,39,16910,3
2016-07-21 09:08:00,09:08:01,09:08:52,15595,15783,16905.0,38,16910.0,10,16910.0,16915.0,16900.0,16910.0,162,30,16905,46,16915,32
2016-07-21 09:09:00,09:09:01,09:09:59,15795,15926,16910.0,18,16915.0,36,16915.0,16915.0,16900.0,16900.0,87,-9,16900,30,16905,16
2016-07-21 09:10:00,09:10:01,09:10:52,15933,16030,16900.0,32,16905.0,14,16905.0,16910.0,16905.0,16910.0,47,41,16905,31,16910,16
2016-07-21 09:11:00,09:11:02,09:11:52,16045,16141,16905.0,29,16910.0,31,16910.0,16910.0,16905.0,16905.0,86,-44,16900,34,16905,6
2016-07-21 09:12:00,09:12:02,09:12:52,16148,16226,16900.0,34,16905.0,6,16905.0,16905.0,16900.0,16905.0,32,24,16900,34,16905,10
2016-07-21 09:13:00,09:13:02,09:13:52,16235,16297,16900.0,30,16905.0,12,16905.0,16905.0,16905.0,16905.0,31,31,16900,39,16905,5
2016-07-21 09:14:00,09:14:02,09:14:53,16303,16439,16900.0,39,16905.0,7,16905.0,16910.0,16900.0,16905.0,109,-49,16900,27,16905,8
2016-07-21 09:15:00,09:15:02,09:15:59,16451,16554,16900.0,27,16905.0,6,16905.0,16910.0,16905.0,16905.0,66,-20,16900,43,16910,35
2016-07-21 09:16:00,09:16:02,09:16:59,16557,16719,16900.0,42,16905.0,4,16905.0,16910.0,16905.0,16905.0,165,16,16905,1,16910,41
2016-07-21 09:17:00,09:17:02,09:17:52,16725,16811,16905.0,8,16910.0,37,16910.0,16910.0,16905.0,16905.0,92,11,16900,24,16905,29
2016-07-21 09:18:00,09:18:02,09:18:52,16823,16984,16900.0,38,16905.0,16,16905.0,16905.0,16885.0,16890.0,109,-77,16885,18,16890,25
2016-07-21 09:19:00,09:19:03,09:19:53,17001,17108,16885.0,31,16890.0,30,16890.0,16895.0,16890.0,16895.0,79,39,16890,45,16895,26
2016-07-21 09:20:00,09:20:03,09:20:58,17126,17249,16890.0,35,16895.0,41,16895.0,16895.0,16885.0,16885.0,94,-70,16885,12,16890,38
2016-07-21 09:21:00,09:21:02,09:21:53,17259,17383,16885.0,22,16890.0,27,16890.0,16900.0,16890.0,16900.0,92,74,16890,39,16900,60
2016-07-21 09:22:00,09:22:03,09:22:53,17390,17443,16890.0,39,16895.0,3,16895.0,16900.0,16895.0,16895.0,32,28,16890,26,16895,53
2016-07-21 09:23:00,09:23:03,09:23:57,17446,17505,16890.0,30,16895.0,54,16895.0,16895.0,16895.0,16895.0,45,41,16890,27,16895,2
2016-07-21 09:24:00,09:24:03,09:24:53,17514,17623,16890.0,27,16895.0,40,16895.0,16895.0,16885.0,16890.0,64,-22,16885,26,16890,31
2016-07-21 09:25:00,09:25:04,09:25:54,17644,17795,16885.0,15,16890.0,36,16890.0,16895.0,16890.0,16890.0,115,15,16885,38,16895,44
2016-07-21 09:26:00,09:26:03,09:26:17,17803,17831,16885.0,40,16890.0,8,16890.0,16895.0,16890.0,16895.0,13,13,16890,33,16895,18
2016-07-21 09:27:00,09:27:08,09:27:12,17851,17864,16890.0,38,16895.0,18,16895.0,16895.0,16890.0,16895.0,18,16,16895,27,16900,36
2016-07-21 09:28:00,09:28:06,09:28:56,17912,17998,16895.0,39,16900.0,21,16900.0,16900.0,16895.0,16895.0,54,-13,16895,4,16900,48
2016-07-21 09:29:00,09:29:03,09:29:35,18007,18068,16895.0,8,16900.0,48,16895.0,16895.0,16885.0,16885.0,50,-40,16885,23,16890,27
2016-07-21 09:30:00,09:30:00,09:30:49,18087,18336,16885.0,23,16890.0,29,16885.0,16885.0,16865.0,16870.0,261,-133,16865,35,16870,1
2016-07-21 09:31:00,09:31:03,09:31:54,18368,18655,16865.0,17,16870.0,30,16865.0,16870.0,16860.0,16870.0,352,38,16865,13,16870,29
2016-07-21 09:32:00,09:32:09,09:32:46,18671,18802,16865.0,21,16870.0,34,16865.0,16875.0,16865.0,16875.0,145,-29,16875,30,16880,41
2016-07-21 09:33:00,09:33:05,09:33:56,18815,19021,16875.0,32,16880.0,39,16880.0,16880.0,16870.0,16875.0,217,-27,16875,18,16880,36
2016-07-21 09:34:00,09:34:00,09:34:16,19032,19079,16875.0,14,16880.0,33,16875.0,16880.0,16875.0,16880.0,32,4,16875,17,16880,32
2016-07-21 09:35:00,09:35:02,09:35:59,19121,19435,16875.0,25,16880.0,35,16875.0,16885.0,16870.0,16875.0,385,-113,16875,19,16880,25
2016-07-21 09:36:00,09:36:01,09:36:58,19442,19635,16875.0,26,16880.0,21,16880.0,16885.0,16880.0,16885.0,184,-60,16885,40,16890,48
2016-07-21 09:37:00,09:37:22,09:37:54,19675,19774,16885.0,44,16890.0,44,16885.0,16885.0,16880.0,16880.0,114,-6,16880,18,16885,32
2016-07-21 09:38:00,09:38:04,09:38:45,19789,19899,16880.0,36,16885.0,26,16885.0,16890.0,16885.0,16890.0,106,100,16885,35,16890,12
2016-07-21 09:39:00,09:39:04,09:39:42,19926,20003,16885.0,30,16890.0,17,16890.0,16890.0,16885.0,16885.0,44,-2,16885,4,16890,42
2016-07-21 09:40:00,09:40:16,09:40:59,20033,20110,16885.0,24,16890.0,25,16890.0,16895.0,16890.0,16895.0,60,40,16890,38,16895,13
2016-07-21 09:41:00,09:41:01,09:41:57,20115,20301,16890.0,34,16895.0,38,16895.0,16895.0,16875.0,16875.0,187,32,16870,25,16875,31
2016-07-21 09:42:00,09:42:38,09:42:46,20340,20384,16870.0,29,16875.0,30,16875.0,16875.0,16875.0,16875.0,56,36,16870,24,16875,9
2016-07-21 09:43:00,09:43:17,09:43:59,20413,20548,16870.0,38,16875.0,19,16875.0,16885.0,16875.0,16875.0,141,7,16870,32,16880,40
2016-07-21 09:44:00,09:44:05,09:44:53,20562,20638,16875.0,10,16880.0,34,16875.0,16875.0,16870.0,16875.0,19,-15,16875,11,16880,38
2016-07-21 09:45:00,09:45:01,09:45:58,20649,20726,16875.0,20,16880.0,30,16880.0,16885.0,16880.0,16880.0,47,43,16880,36,16885,17
2016-07-21 09:46:00,09:46:59,09:46:59,20777,20777,16880.0,29,16885.0,40,16885.0,16885.0,16885.0,16885.0,3,3,16880,31,16885,35
2016-07-21 09:47:00,09:47:16,09:47:58,20792,20872,16880.0,21,16885.0,42,16880.0,16885.0,16875.0,16875.0,59,-11,16875,2,16880,48
2016-07-21 09:48:00,09:48:04,09:48:58,20879,20999,16875.0,5,16880.0,48,16875.0,16885.0,16875.0,16885.0,84,55,16885,6,16890,33
2016-07-21 09:49:00,09:49:02,09:49:55,21003,21135,16885.0,6,16890.0,35,16885.0,16885.0,16870.0,16870.0,67,-45,16870,14,16875,37
2016-07-21 09:50:00,09:50:11,09:50:59,21147,21230,16870.0,35,16875.0,25,16875.0,16875.0,16870.0,16870.0,71,-29,16865,28,16870,28
2016-07-21 09:51:00,09:51:02,09:51:57,21240,21358,16865.0,35,16870.0,13,16870.0,16875.0,16870.0,16875.0,115,-25,16875,17,16880,30
2016-07-21 09:52:00,09:52:30,09:52:32,21370,21405,16875.0,37,16880.0,9,16880.0,16880.0,16880.0,16880.0,53,41,16875,28,16880,2
2016-07-21 09:53:00,09:53:00,09:53:48,21426,21546,16875.0,24,16880.0,39,16875.0,16875.0,16870.0,16870.0,92,-28,16865,32,16875,38
2016-07-21 09:54:00,09:54:08,09:54:51,21556,21619,16865.0,48,16870.0,14,16865.0,16875.0,16865.0,16875.0,43,13,16870,63,16875,5
2016-07-21 09:55:00,09:55:05,09:55:41,21632,21740,16870.0,75,16875.0,35,16875.0,16875.0,16870.0,16875.0,174,-44,16870,46,16880,45
2016-07-21 09:56:00,09:56:34,09:56:59,21783,21920,16870.0,31,16875.0,47,16875.0,16875.0,16855.0,16855.0,148,-48,16855,13,16860,36
2016-07-21 09:57:00,09:57:02,09:57:56,21931,22077,16855.0,33,16860.0,23,16855.0,16860.0,16855.0,16860.0,110,-8,16855,37,16860,1
2016-07-21 09:58:00,09:58:23,09:58:31,22106,22161,16855.0,40,16860.0,5,16860.0,16865.0,16860.0,16865.0,54,-8,16860,32,16865,17
2016-07-21 09:59:00,09:59:08,09:59:44,22190,22234,16860.0,35,16865.0,15,16865.0,16865.0,16865.0,16865.0,23,-1,16860,33,16865,15
2016-07-21 10:00:00,10:00:14,10:00:57,22261,22397,16860.0,28,16865.0,35,16860.0,16865.0,16860.0,16865.0,158,-18,16860,34,16865,6
2016-07-21 10:01:00,10:01:04,10:01:59,22410,22519,16860.0,37,16865.0,7,16865.0,16875.0,16865.0,16865.0,77,1,16860,35,16865,11
2016-07-21 10:02:00,10:02:00,10:02:43,22522,22591,16860.0,35,16865.0,11,16865.0,16865.0,16860.0,16860.0,25,3,16860,39,16865,21
2016-07-21 10:03:00,10:03:01,10:03:57,22602,22744,16860.0,39,16865.0,22,16865.0,16865.0,16860.0,16860.0,117,-47,16855,25,16860,18
2016-07-21 10:04:00,10:04:01,10:04:31,22753,22825,16855.0,34,16860.0,16,16855.0,16860.0,16855.0,16855.0,73,-59,16855,6,16860,49
2016-07-21 10:05:00,10:05:01,10:05:58,22860,22981,16855.0,43,16860.0,11,16860.0,16865.0,16860.0,16860.0,107,6,16855,31,16860,4
2016-07-21 10:06:00,10:06:50,10:06:55,23022,23048,16855.0,20,16860.0,39,16855.0,16855.0,16855.0,16855.0,26,-12,16855,19,16860,41
2016-07-21 10:07:00,10:07:43,10:07:48,23072,23123,16855.0,38,16860.0,30,16860.0,16860.0,16860.0,16860.0,50,6,16855,35,16860,3
2016-07-21 10:08:00,10:08:46,10:08:46,23167,23167,16855.0,27,16860.0,36,16860.0,16860.0,16860.0,16860.0,1,1,16855,37,16860,10
2016-07-21 10:09:00,10:09:09,10:09:58,23191,23309,16855.0,38,16860.0,17,16860.0,16870.0,16860.0,16865.0,69,-9,16865,7,16870,31
2016-07-21 10:10:00,10:10:01,10:10:29,23316,23371,16865.0,21,16870.0,27,16865.0,16870.0,16865.0,16870.0,31,7,16865,33,16870,23
2016-07-21 10:11:00,10:11:04,10:11:21,23400,23444,16865.0,34,16870.0,32,16870.0,16870.0,16865.0,16865.0,55,53,16865,43,16870,14
2016-07-21 10:12:00,10:12:20,10:12:40,23501,23615,16865.0,51,16870.0,19,16870.0,16875.0,16860.0,16865.0,120,14,16860,29,16865,21
2016-07-21 10:13:00,10:13:00,10:13:00,0,0,0.0,0,0.0,0,16865.0,16865.0,16865.0,16865.0,0,0,0,0,0,0
2016-07-21 10:14:00,10:14:19,10:14:43,23680,23792,16860.0,24,16865.0,23,16860.0,16860.0,16855.0,16855.0,102,-24,16850,56,16860,44
2016-07-21 10:15:00,10:15:01,10:15:58,23803,23933,16855.0,41,16860.0,17,16860.0,16860.0,16855.0,16855.0,115,-41,16855,8,16860,43
2016-07-21 10:16:00,10:16:01,10:16:46,23936,24178,16850.0,55,16855.0,4,16855.0,16855.0,16835.0,16840.0,268,-253,16835,38,16840,7
2016-07-21 10:17:00,10:17:12,10:17:53,24215,24422,16835.0,20,16840.0,30,16835.0,16840.0,16835.0,16835.0,204,-48,16830,44,16840,35
2016-07-21 10:18:00,10:18:00,10:18:58,24432,24577,16835.0,24,16840.0,31,16840.0,16840.0,16835.0,16835.0,86,-8,16835,13,16840,36
2016-07-21 10:19:00,10:19:00,10:19:47,24579,24692,16835.0,13,16840.0,31,16835.0,16835.0,16835.0,16835.0,54,-6,16835,6,16840,38
2016-07-21 10:20:00,10:20:27,10:20:55,24717,24776,16835.0,32,16840.0,31,16840.0,16845.0,16840.0,16845.0,59,57,16845,29,16850,36
2016-07-21 10:21:00,10:21:03,10:21:57,24782,24861,16845.0,25,16850.0,39,16845.0,16845.0,16840.0,16845.0,75,-13,16845,25,16850,38
2016-07-21 10:22:00,10:22:00,10:22:59,24869,24950,16845.0,23,16850.0,41,16850.0,16850.0,16845.0,16845.0,30,-20,16840,44,16845,7
2016-07-21 10:23:00,10:23:06,10:23:48,24962,25029,16840.0,32,16845.0,31,16840.0,16845.0,16840.0,16840.0,40,10,16840,41,16845,19
2016-07-21 10:24:00,10:24:19,10:24:49,25046,25100,16840.0,43,16845.0,14,16845.0,16850.0,16845.0,16845.0,31,-15,16840,43,16845,14
2016-07-21 10:25:00,10:25:00,10:25:52,25115,25211,16840.0,33,16845.0,37,16840.0,16845.0,16835.0,16845.0,97,29,16840,49,16850,46
2016-07-21 10:26:00,10:26:02,10:26:59,25220,25283,16845.0,3,16850.0,48,16845.0,16845.0,16840.0,16840.0,34,-18,16840,3,16845,44
2016-07-21 10:27:00,10:27:00,10:27:52,25284,25381,16835.0,40,16840.0,10,16840.0,16840.0,16835.0,16835.0,84,6,16830,43,16835,6
2016-07-21 10:28:00,10:28:05,10:28:59,25393,25505,16830.0,39,16835.0,7,16835.0,16840.0,16835.0,16835.0,85,-55,16835,34,16840,28
2016-07-21 10:29:00,10:29:01,10:29:59,25514,25665,16835.0,52,16840.0,17,16840.0,16845.0,16830.0,16835.0,138,0,16835,10,16840,50
2016-07-21 10:30:00,10:30:00,10:30:42,25668,25740,16835.0,10,16840.0,50,16835.0,16835.0,16835.0,16835.0,33,31,16830,44,16835,16
2016-07-21 10:31:00,10:31:15,10:31:15,25755,25757,16830.0,42,16835.0,24,16835.0,16835.0,16835.0,16835.0,4,4,16830,39,16835,15
2016-07-21 10:32:00,10:32:31,10:32:55,25787,25828,16830.0,42,16835.0,5,16835.0,16835.0,16835.0,16835.0,30,10,16830,42,16840,46
2016-07-21 10:33:00,10:33:12,10:33:21,25838,25847,16830.0,41,16835.0,2,16835.0,16835.0,16835.0,16835.0,3,1,16835,38,16840,46
2016-07-21 10:34:00,10:34:58,10:34:58,25874,25874,16835.0,36,16840.0,34,16840.0,16840.0,16840.0,16840.0,1,1,16835,39,16840,29
2016-07-21 10:35:00,10:35:10,10:35:57,25879,25931,16835.0,39,16840.0,22,16840.0,16840.0,16835.0,16835.0,40,18,16830,39,16835,5
2016-07-21 10:36:00,10:36:00,10:36:57,25937,25993,16830.0,38,16835.0,11,16835.0,16840.0,16835.0,16835.0,41,-23,16835,3,16840,32
2016-07-21 10:37:00,10:37:00,10:37:52,25997,26077,16835.0,4,16840.0,32,16835.0,16840.0,16830.0,16835.0,44,-22,16835,8,16840,36
2016-07-21 10:38:00,10:38:24,10:38:25,26090,26103,16835.0,18,16840.0,36,16835.0,16835.0,16835.0,16835.0,26,-26,16830,83,16835,4
2016-07-21 10:39:00,10:39:16,10:39:37,26127,26149,16835.0,12,16840.0,36,16835.0,16835.0,16835.0,16835.0,16,-16,16830,85,16835,1
2016-07-21 10:40:00,10:40:00,10:40:58,26159,26231,16835.0,2,16840.0,40,16835.0,16835.0,16830.0,16835.0,54,-37,16835,20,16835,4
2016-07-21 10:41:00,10:41:04,10:41:44,26235,26265,16830.0,80,16835.0,5,16835.0,16840.0,16835.0,16840.0,16,-4,16835,12,16840,36
2016-07-21 10:42:00,10:42:03,10:42:49,26277,26309,16835.0,11,16840.0,35,16835.0,16840.0,16835.0,16840.0,26,22,16835,40,16840,4
2016-07-21 10:43:00,10:43:11,10:43:58,26324,26362,16835.0,40,16840.0,5,16840.0,16840.0,16840.0,16840.0,20,18,16840,5,16845,48
2016-07-21 10:44:00,10:44:10,10:44:59,26373,26434,16840.0,27,16845.0,44,16840.0,16845.0,16835.0,16840.0,43,-33,16835,32,16840,26
2016-07-21 10:45:00,10:45:37,10:45:59,26453,26489,16835.0,34,16840.0,17,16840.0,16845.0,16840.0,16845.0,32,22,16840,28,16845,33
2016-07-21 10:46:00,10:46:16,10:46:37,26499,26511,16840.0,24,16845.0,41,16840.0,16840.0,16840.0,16840.0,4,-4,16840,15,16845,47
2016-07-21 10:47:00,10:47:38,10:47:38,26522,26533,16840.0,13,16845.0,47,16840.0,16840.0,16840.0,16840.0,23,-23,16840,10,16845,44
2016-07-21 10:48:00,10:48:19,10:48:34,26551,26582,16840.0,38,16845.0,26,16845.0,16845.0,16845.0,16845.0,37,28,16845,25,16850,44
2016-07-21 10:49:00,10:49:00,10:49:00,0,0,0.0,0,0.0,0,16845.0,16845.0,16845.0,16845.0,0,0,0,0,0,0
2016-07-21 10:50:00,10:50:44,10:50:44,26615,26617,16845.0,29,16850.0,45,16850.0,16850.0,16850.0,16850.0,12,12,16845,33,16850,37
2016-07-21 10:51:00,10:51:05,10:51:50,26636,26720,16845.0,51,16850.0,28,16850.0,16855.0,16850.0,16850.0,94,67,16845,34,16855,37
2016-07-21 10:52:00,10:52:00,10:52:00,26726,26728,16845.0,34,16850.0,4,16850.0,16850.0,16850.0,16850.0,4,4,16850,2,16855,37
2016-07-21 10:53:00,10:53:56,10:53:56,26785,26789,16850.0,13,16855.0,40,16850.0,16850.0,16850.0,16850.0,13,-13,16845,32,16850,31
2016-07-21 10:54:00,10:54:10,10:54:10,26802,26811,16845.0,37,16850.0,13,16850.0,16850.0,16850.0,16850.0,20,6,16845,39,16855,39
2016-07-21 10:55:00,10:55:03,10:55:03,26839,26839,16850.0,19,16855.0,39,16855.0,16855.0,16855.0,16855.0,1,1,16850,20,16855,38
2016-07-21 10:56:00,10:56:00,10:56:00,0,0,0.0,0,0.0,0,16855.0,16855.0,16855.0,16855.0,0,0,0,0,0,0
2016-07-21 10:57:00,10:57:00,10:57:00,0,0,0.0,0,0.0,0,16855.0,16855.0,16855.0,16855.0,0,0,0,0,0,0
2016-07-21 10:58:00,10:58:22,10:58:47,26916,26947,16850.0,14,16855.0,38,16850.0,16850.0,16850.0,16850.0,20,3,16845,33,16855,40
2016-07-21 10:59:00,10:59:43,10:59:43,26967,26973,16845.0,31,16850.0,18,16850.0,16850.0,16850.0,16850.0,17,17,16850,31,16855,17
2016-07-21 11:00:00,11:00:10,11:00:47,26991,27064,16850.0,24,16855.0,28,16850.0,16850.0,16845.0,16845.0,66,-10,16845,2,16850,30
2016-07-21 11:01:00,11:01:04,11:01:59,27069,27127,16845.0,2,16850.0,30,16845.0,16850.0,16845.0,16845.0,76,68,16845,32,16850,5
2016-07-21 11:02:00,11:02:19,11:02:40,27134,27196,16845.0,33,16850.0,1,16850.0,16850.0,16850.0,16850.0,50,-47,16845,30,16855,40
2016-07-21 11:03:00,11:03:11,11:03:51,27212,27259,16850.0,30,16855.0,21,16855.0,16855.0,16855.0,16855.0,44,10,16850,39,16860,49
2016-07-21 11:04:00,11:04:44,11:04:49,27288,27291,16850.0,34,16855.0,4,16855.0,16855.0,16850.0,16850.0,3,1,16850,33,16855,3
2016-07-21 11:05:00,11:05:00,11:05:00,0,0,0.0,0,0.0,0,16850.0,16850.0,16850.0,16850.0,0,0,0,0,0,0
2016-07-21 11:06:00,11:06:09,11:06:18,27313,27327,16850.0,36,16855.0,1,16855.0,16855.0,16855.0,16855.0,12,-10,16850,32,16860,48
2016-07-21 11:07:00,11:07:34,11:07:51,27353,27378,16855.0,4,16860.0,49,16860.0,16860.0,16860.0,16860.0,13,13,16855,17,16860,38
2016-07-21 11:08:00,11:08:22,11:08:31,27387,27400,16855.0,20,16860.0,33,16855.0,16855.0,16855.0,16855.0,11,-11,16855,12,16860,47
2016-07-21 11:09:00,11:09:15,11:09:35,27423,27457,16855.0,10,16860.0,40,16855.0,16855.0,16855.0,16855.0,24,-24,16850,29,16860,48
2016-07-21 11:10:00,11:10:05,11:10:50,27466,27482,16855.0,3,16860.0,48,16855.0,16855.0,16855.0,16855.0,4,-4,16850,32,16860,47
2016-07-21 11:11:00,11:11:38,11:11:39,27506,27510,16855.0,8,16860.0,48,16855.0,16855.0,16855.0,16855.0,12,-12,16850,32,16860,44
2016-07-21 11:12:00,11:12:03,11:12:42,27531,27605,16855.0,21,16860.0,35,16860.0,16865.0,16860.0,16865.0,92,92,16860,27,16865,16
2016-07-21 11:13:00,11:13:16,11:13:35,27618,27671,16860.0,24,16865.0,22,16860.0,16860.0,16855.0,16860.0,45,11,16855,31,16865,42
2016-07-21 11:14:00,11:14:14,11:14:34,27696,27725,16855.0,19,16860.0,37,16860.0,16860.0,16855.0,16860.0,22,-2,16855,19,16860,33
2016-07-21 11:15:00,11:15:01,11:15:32,27739,27777,16855.0,35,16860.0,20,16860.0,16860.0,16860.0,16860.0,19,9,16855,35,16860,25
2016-07-21 11:16:00,11:16:18,11:16:18,27798,27798,16855.0,25,16860.0,36,16860.0,16860.0,16860.0,16860.0,2,2,16855,27,16860,34
2016-07-21 11:17:00,11:17:00,11:17:00,0,0,0.0,0,0.0,0,16860.0,16860.0,16860.0,16860.0,0,0,0,0,0,0
2016-07-21 11:18:00,11:18:07,11:18:34,27846,27924,16855.0,34,16860.0,24,16855.0,16855.0,16855.0,16855.0,82,-68,16855,2,16855,3
2016-07-21 11:19:00,11:19:00,11:19:00,0,0,0.0,0,0.0,0,16855.0,16855.0,16855.0,16855.0,0,0,0,0,0,0
2016-07-21 11:20:00,11:20:00,11:20:00,0,0,0.0,0,0.0,0,16855.0,16855.0,16855.0,16855.0,0,0,0,0,0,0
2016-07-21 11:21:00,11:21:00,11:21:35,27969,28020,16855.0,33,16860.0,18,16860.0,16860.0,16855.0,16855.0,27,-21,16855,8,16855,21
2016-07-21 11:22:00,11:22:25,11:22:57,28026,28077,16855.0,23,16860.0,28,16855.0,16855.0,16855.0,16855.0,59,-25,16850,37,16855,2
2016-07-21 11:23:00,11:23:04,11:23:28,28084,28129,16850.0,37,16855.0,9,16855.0,16855.0,16850.0,16850.0,51,-28,16850,12,16855,20
2016-07-21 11:24:00,11:24:00,11:24:45,28145,28184,16850.0,23,16855.0,4,16855.0,16855.0,16855.0,16855.0,27,-17,16850,18,16855,11
2016-07-21 11:25:00,11:25:33,11:25:58,28210,28235,16855.0,14,16860.0,27,16855.0,16855.0,16855.0,16855.0,18,-10,16850,28,16860,27
2016-07-21 11:26:00,11:26:07,11:26:38,28245,28284,16855.0,2,16860.0,27,16855.0,16855.0,16855.0,16855.0,14,-4,16850,25,16860,25
2016-07-21 11:27:00,11:27:21,11:27:58,28313,28387,16850.0,25,16855.0,16,16855.0,16860.0,16855.0,16860.0,102,86,16855,38,16860,6
2016-07-21 11:28:00,11:28:10,11:28:11,28396,28403,16855.0,38,16860.0,14,16860.0,16860.0,16860.0,16860.0,17,17,16855,25,16860,16
2016-07-21 11:29:00,11:29:01,11:29:39,28419,28456,16855.0,27,16860.0,17,16855.0,16860.0,16855.0,16860.0,43,5,16855,34,16865,43
2016-07-21 11:30:00,11:30:00,11:30:43,28471,28573,16855.0,32,16860.0,18,16855.0,16860.0,16855.0,16855.0,109,-43,16855,5,16860,34
2016-07-21 11:31:00,11:31:01,11:31:12,28583,28608,16855.0,9,16860.0,34,16855.0,16855.0,16855.0,16855.0,14,-12,16855,12,16860,34
2016-07-21 11:32:00,11:32:25,11:32:37,28637,28656,16855.0,22,16860.0,34,16860.0,16860.0,16860.0,16860.0,29,29,16860,24,16865,20
2016-07-21 11:33:00,11:33:15,11:33:39,28680,28754,16860.0,39,16865.0,20,16860.0,16860.0,16860.0,16860.0,90,-70,16855,42,16860,25
2016-07-21 11:34:00,11:34:00,11:34:00,0,0,0.0,0,0.0,0,16860.0,16860.0,16860.0,16860.0,0,0,0,0,0,0
2016-07-21 11:35:00,11:35:12,11:35:59,28796,28908,16855.0,50,16860.0,18,16860.0,16865.0,16860.0,16860.0,77,19,16855,54,16860,7
2016-07-21 11:36:00,11:36:00,11:36:50,28910,28986,16855.0,52,16860.0,7,16860.0,16860.0,16855.0,16855.0,66,8,16850,26,16855,36
2016-07-21 11:37:00,11:37:00,11:37:58,28996,29191,16850.0,13,16855.0,44,16855.0,16855.0,16835.0,16835.0,156,-16,16835,16,16840,30
2016-07-21 11:38:00,11:38:01,11:38:51,29197,29297,16835.0,18,16840.0,29,16840.0,16845.0,16835.0,16840.0,52,30,16835,24,16840,36
2016-07-21 11:39:00,11:39:01,11:39:51,29312,29373,16835.0,11,16840.0,38,16840.0,16845.0,16840.0,16845.0,36,30,16840,66,16845,25
2016-07-21 11:40:00,11:40:01,11:40:53,29384,29537,16840.0,45,16845.0,38,16845.0,16845.0,16835.0,16835.0,138,-38,16830,88,16840,44
2016-07-21 11:41:00,11:41:01,11:41:59,29541,29639,16830.0,91,16840.0,44,16835.0,16840.0,16835.0,16840.0,69,32,16835,24,16840,44
2016-07-21 11:42:00,11:42:00,11:42:52,29645,29715,16835.0,11,16840.0,45,16835.0,16840.0,16835.0,16835.0,51,-1,16830,93,16835,3
2016-07-21 11:43:00,11:43:01,11:43:53,29723,29841,16830.0,90,16835.0,14,16835.0,16845.0,16835.0,16835.0,87,-7,16830,92,16835,4
2016-07-21 11:44:00,11:44:01,11:44:52,29848,29908,16830.0,92,16835.0,4,16835.0,16840.0,16835.0,16835.0,24,23,16830,85,16835,22
2016-07-21 11:45:00,11:45:02,11:45:54,29919,30059,16830.0,89,16835.0,26,16835.0,16840.0,16830.0,16835.0,97,56,16830,92,16835,1
2016-07-21 11:46:00,11:46:02,11:46:59,30064,30243,16830.0,92,16835.0,8,16835.0,16840.0,16835.0,16840.0,135,49,16835,38,16840,18
2016-07-21 11:47:00,11:47:02,11:47:59,30249,30315,16835.0,37,16840.0,29,16840.0,16840.0,16835.0,16835.0,49,7,16835,6,16840,41
2016-07-21 11:48:00,11:48:00,11:48:52,30319,30473,16835.0,10,16840.0,41,16835.0,16845.0,16835.0,16840.0,113,21,16835,43,16840,3
2016-07-21 11:49:00,11:49:02,11:49:59,30482,30610,16835.0,42,16840.0,22,16840.0,16840.0,16835.0,16835.0,87,3,16835,32,16840,28
2016-07-21 11:50:00,11:50:01,11:50:52,30614,30765,16835.0,24,16840.0,28,16840.0,16845.0,16840.0,16845.0,116,58,16840,39,16845,18
2016-07-21 11:51:00,11:51:02,11:51:59,30772,30863,16840.0,39,16845.0,17,16845.0,16850.0,16840.0,16840.0,62,21,16840,24,16845,44
2016-07-21 11:52:00,11:52:02,11:52:53,30869,30941,16840.0,24,16845.0,44,16845.0,16845.0,16835.0,16835.0,57,-21,16830,82,16840,38
2016-07-21 11:53:00,11:53:01,11:53:53,30954,31160,16835.0,9,16840.0,42,16835.0,16840.0,16830.0,16835.0,254,-144,16830,30,16835,31
2016-07-21 11:54:00,11:54:03,11:54:59,31164,31366,16830.0,31,16835.0,31,16835.0,16840.0,16820.0,16825.0,236,-68,16820,53,16830,35
2016-07-21 11:55:00,11:55:00,11:55:59,31371,31535,16825.0,1,16830.0,34,16825.0,16835.0,16825.0,16830.0,162,68,16830,42,16835,5
2016-07-21 11:56:00,11:56:00,11:56:58,31538,31759,16830.0,42,16835.0,5,16830.0,16830.0,16825.0,16825.0,278,-228,16825,9,16830,37
2016-07-21 11:57:00,11:57:00,11:57:58,31763,32293,16825.0,14,16830.0,38,16825.0,16825.0,16795.0,16805.0,950,-430,16800,31,16805,12
2016-07-21 11:58:00,11:58:02,11:58:55,32303,32879,16800.0,22,16805.0,28,16800.0,16800.0,16760.0,16775.0,797,-420,16775,2,16775,10
2016-07-21 11:59:00,11:59:01,11:59:58,32893,33127,16770.0,37,16775.0,20,16775.0,16785.0,16775.0,16780.0,191,41,16780,16,16785,26
2016-07-21 12:00:00,12:00:03,12:00:57,33139,33414,16780.0,13,16785.0,33,16780.0,16785.0,16770.0,16770.0,280,-168,16765,31,16770,30
2016-07-21 12:01:00,12:01:03,12:01:56,33431,33781,16765.0,27,16770.0,29,16765.0,16785.0,16755.0,16775.0,430,-72,16770,39,16780,43
2016-07-21 12:02:00,12:02:00,12:02:57,33790,34006,16775.0,13,16780.0,44,16775.0,16785.0,16775.0,16780.0,189,35,16780,30,16785,24
2016-07-21 12:03:00,12:03:01,12:03:56,34008,34172,16780.0,30,16785.0,19,16780.0,16785.0,16780.0,16780.0,168,6,16780,21,16785,18
2016-07-21 12:04:00,12:04:01,12:04:59,34181,34305,16780.0,26,16785.0,28,16780.0,16780.0,16770.0,16775.0,97,-79,16770,40,16780,41
2016-07-21 12:05:00,12:05:00,12:05:58,34310,34465,16770.0,35,16775.0,20,16775.0,16775.0,16770.0,16775.0,159,-15,16770,18,16775,22
2016-07-21 12:06:00,12:06:09,12:06:52,34481,34618,16770.0,20,16775.0,14,16775.0,16775.0,16770.0,16775.0,138,28,16770,40,16780,15
2016-07-21 12:07:00,12:07:02,12:07:59,34624,34791,16775.0,8,16780.0,45,16780.0,16780.0,16770.0,16775.0,126,20,16770,31,16775,20
2016-07-21 12:08:00,12:08:01,12:08:59,34797,34900,16770.0,30,16775.0,20,16775.0,16775.0,16770.0,16775.0,64,42,16770,17,16775,30
2016-07-21 12:09:00,12:09:02,12:09:31,34904,34967,16770.0,17,16775.0,34,16770.0,16770.0,16765.0,16770.0,55,-35,16770,6,16775,33
2016-07-21 12:10:00,12:10:00,12:10:41,34984,35045,16770.0,14,16775.0,43,16770.0,16770.0,16760.0,16765.0,56,-56,16765,14,16770,42
2016-07-21 12:11:00,12:11:00,12:11:49,35053,35194,16765.0,25,16770.0,36,16765.0,16765.0,16760.0,16765.0,134,25,16760,36,16770,48
2016-07-21 12:12:00,12:12:02,12:12:58,35205,35334,16760.0,35,16765.0,4,16765.0,16765.0,16765.0,16765.0,87,68,16760,39,16770,45
2016-07-21 12:13:00,12:13:02,12:13:52,35341,35440,16765.0,6,16770.0,41,16770.0,16770.0,16765.0,16765.0,85,67,16765,29,16770,13
2016-07-21 12:14:00,12:14:01,12:14:55,35445,35641,16765.0,29,16770.0,11,16765.0,16785.0,16765.0,16785.0,165,97,16780,32,16785,6
2016-07-21 12:15:00,12:15:00,12:15:59,35647,35757,16780.0,32,16785.0,3,16785.0,16785.0,16780.0,16785.0,88,48,16785,4,16785,3
2016-07-21 12:16:00,12:16:00,12:16:45,35758,35816,16785.0,3,16790.0,39,16785.0,16785.0,16785.0,16785.0,33,-12,16780,30,16785,13
2016-07-21 12:17:00,12:17:14,12:17:44,35842,35873,16780.0,32,16785.0,12,16780.0,16780.0,16780.0,16780.0,13,-13,16780,10,16785,38
2016-07-21 12:18:00,12:18:14,12:18:57,35905,36043,16780.0,20,16785.0,37,16780.0,16785.0,16775.0,16780.0,125,-10,16775,32,16780,8
2016-07-21 12:19:00,12:19:21,12:19:55,36062,36132,16775.0,37,16780.0,20,16780.0,16780.0,16780.0,16780.0,38,-6,16780,6,16785,37
2016-07-21 12:20:00,12:20:02,12:20:47,36141,36231,16780.0,14,16785.0,36,16780.0,16780.0,16770.0,16775.0,49,-21,16775,5,16780,40
2016-07-21 12:21:00,12:21:02,12:21:29,36251,36299,16775.0,20,16780.0,29,16780.0,16780.0,16775.0,16780.0,37,3,16780,2,16785,35
2016-07-21 12:22:00,12:22:03,12:22:50,36324,36390,16780.0,29,16785.0,22,16785.0,16790.0,16785.0,16790.0,26,-3,16785,25,16790,33
2016-07-21 12:23:00,12:23:09,12:23:59,36404,36435,16785.0,30,16790.0,31,16790.0,16790.0,16790.0,16790.0,3,3,16785,40,16790,28
2016-07-21 12:24:00,12:24:00,12:24:57,36437,36567,16785.0,30,16790.0,28,16790.0,16795.0,16785.0,16785.0,167,-67,16785,2,16790,52
2016-07-21 12:25:00,12:25:40,12:25:53,36615,36700,16785.0,60,16790.0,36,16790.0,16790.0,16775.0,16775.0,159,-119,16775,4,16780,28
2016-07-21 12:26:00,12:26:12,12:26:59,36718,36826,16775.0,37,16780.0,16,16780.0,16785.0,16780.0,16780.0,98,-50,16780,3,16785,36
2016-07-21 12:27:00,12:27:19,12:27:52,36839,36869,16780.0,27,16785.0,18,16780.0,16780.0,16780.0,16780.0,13,-13,16780,24,16785,27
2016-07-21 12:28:00,12:28:03,12:28:48,36873,36924,16780.0,26,16785.0,27,16785.0,16785.0,16780.0,16785.0,30,18,16780,33,16785,9
2016-07-21 12:29:00,12:29:22,12:29:45,36949,36961,16780.0,31,16785.0,12,16785.0,16785.0,16785.0,16785.0,5,5,16785,52,16785,9
2016-07-21 12:30:00,12:30:03,12:30:52,36974,37084,16780.0,32,16785.0,6,16785.0,16790.0,16785.0,16785.0,136,12,16785,21,16790,35
2016-07-21 12:31:00,12:31:24,12:31:32,37108,37132,16785.0,21,16790.0,36,16785.0,16790.0,16785.0,16785.0,51,5,16780,42,16785,5
2016-07-21 12:32:00,12:32:00,12:32:54,37142,37237,16780.0,42,16785.0,6,16785.0,16785.0,16780.0,16780.0,90,-30,16780,31,16785,28
2016-07-21 12:33:00,12:33:02,12:33:37,37247,37340,16780.0,29,16785.0,30,16780.0,16780.0,16775.0,16775.0,101,-61,16770,52,16775,2
2016-07-21 12:34:00,12:34:11,12:34:57,37354,37493,16770.0,51,16775.0,21,16770.0,16770.0,16755.0,16755.0,109,-89,16755,27,16760,40
2016-07-21 12:35:00,12:35:02,12:35:59,37498,37697,16755.0,25,16760.0,40,16755.0,16755.0,16745.0,16755.0,180,-26,16750,40,16755,10
2016-07-21 12:36:00,12:36:00,12:36:59,37700,37930,16750.0,40,16755.0,10,16755.0,16755.0,16750.0,16750.0,251,-8,16750,14,16755,51
2016-07-21 12:37:00,12:37:00,12:37:50,37931,37989,16745.0,38,16750.0,1,16750.0,16755.0,16750.0,16755.0,23,19,16750,34,16755,41
2016-07-21 12:38:00,12:38:00,12:38:56,37995,38101,16750.0,36,16755.0,38,16755.0,16755.0,16745.0,16750.0,54,34,16750,55,16755,31
2016-07-21 12:39:00,12:39:00,12:39:53,38108,38236,16750.0,54,16755.0,31,16755.0,16755.0,16745.0,16750.0,151,-8,16745,32,16750,3
2016-07-21 12:40:00,12:40:00,12:40:52,38244,38326,16745.0,32,16750.0,35,16750.0,16750.0,16740.0,16745.0,65,-21,16740,110,16745,57
2016-07-21 12:41:00,12:41:00,12:41:59,38334,38526,16740.0,109,16745.0,57,16745.0,16745.0,16740.0,16740.0,295,-60,16735,107,16740,5
2016-07-21 12:42:00,12:42:00,12:42:58,38530,38661,16735.0,107,16740.0,2,16740.0,16745.0,16740.0,16745.0,91,54,16740,46,16750,43
2016-07-21 12:43:00,12:43:01,12:43:51,38668,38740,16740.0,47,16750.0,43,16750.0,16750.0,16745.0,16750.0,43,27,16745,7,16750,59
2016-07-21 12:44:00,12:44:01,12:44:55,38757,38946,16745.0,31,16750.0,49,16750.0,16750.0,16730.0,16735.0,223,-143,16735,22,16740,49
2016-07-21 12:45:00,12:45:01,12:45:51,38962,39077,16735.0,21,16740.0,53,16740.0,16745.0,16735.0,16745.0,59,19,16740,46,16745,27
2016-07-21 12:46:00,12:46:01,12:46:56,39084,39173,16740.0,44,16745.0,29,16745.0,16745.0,16740.0,16745.0,57,25,16740,45,16745,4
2016-07-21 12:47:00,12:47:01,12:47:51,39181,39304,16740.0,47,16745.0,14,16745.0,16760.0,16745.0,16760.0,91,53,16755,43,16760,8
2016-07-21 12:48:00,12:48:00,12:48:52,39315,39493,16755.0,38,16760.0,23,16760.0,16760.0,16750.0,16755.0,137,43,16750,18,16755,37
2016-07-21 12:49:00,12:49:02,12:49:56,39506,39571,16750.0,28,16755.0,37,16755.0,16755.0,16745.0,16750.0,27,15,16745,56,16750,15
2016-07-21 12:50:00,12:50:01,12:50:54,39579,39654,16745.0,52,16750.0,20,16750.0,16755.0,16750.0,16755.0,38,38,16755,1,16755,9
2016-07-21 12:51:00,12:51:01,12:51:58,39661,39784,16750.0,57,16755.0,10,16755.0,16760.0,16755.0,16755.0,79,-5,16750,49,16755,4
2016-07-21 12:52:00,12:52:02,12:52:55,39790,39968,16750.0,49,16755.0,10,16755.0,16760.0,16750.0,16755.0,239,167,16750,48,16755,1
2016-07-21 12:53:00,12:53:02,12:53:53,39974,40027,16750.0,49,16755.0,11,16755.0,16760.0,16755.0,16755.0,68,58,16750,50,16755,4
2016-07-21 12:54:00,12:54:01,12:54:52,40031,40124,16750.0,50,16755.0,5,16755.0,16760.0,16755.0,16760.0,62,50,16755,44,16760,19
2016-07-21 12:55:00,12:55:02,12:55:59,40129,40235,16755.0,54,16760.0,20,16760.0,16760.0,16755.0,16760.0,93,3,16755,29,16760,31
2016-07-21 12:56:00,12:56:11,12:56:57,40252,40396,16755.0,29,16760.0,40,16755.0,16765.0,16750.0,16765.0,171,-17,16760,59,16770,41
2016-07-21 12:57:00,12:57:00,12:57:43,40400,40456,16760.0,59,16765.0,1,16765.0,16765.0,16760.0,16760.0,34,-17,16760,31,16765,23
2016-07-21 12:58:00,12:58:04,12:58:56,40478,40568,16760.0,26,16765.0,34,16760.0,16760.0,16750.0,16750.0,59,-31,16750,35,16755,46
2016-07-21 12:59:00,12:59:13,12:59:44,40578,40613,16750.0,15,16755.0,39,16750.0,16750.0,16745.0,16745.0,21,-1,16745,40,16750,17
2016-07-21 13:00:00,13:00:00,13:00:46,40632,40722,16745.0,41,16750.0,29,16750.0,16750.0,16740.0,16745.0,62,10,16745,11,16750,34
2016-07-21 13:01:00,13:01:17,13:01:49,40742,40848,16745.0,19,16750.0,34,16745.0,16750.0,16745.0,16750.0,139,81,16745,47,16755,41
2016-07-21 13:02:00,13:02:02,13:02:57,40859,40935,16745.0,42,16750.0,13,16750.0,16750.0,16750.0,16750.0,51,1,16750,8,16755,29
2016-07-21 13:03:00,13:03:11,13:03:58,40952,41107,16750.0,35,16755.0,15,16755.0,16755.0,16750.0,16750.0,161,-32,16745,41,16755,39
2016-07-21 13:04:00,13:04:01,13:04:58,41111,41246,16750.0,5,16755.0,39,16750.0,16755.0,16740.0,16745.0,105,-29,16745,4,16750,60
2016-07-21 13:05:00,13:05:01,13:05:57,41255,41348,16740.0,60,16745.0,8,16745.0,16750.0,16740.0,16740.0,64,-20,16735,35,16740,18
2016-07-21 13:06:00,13:06:00,13:06:58,41355,41706,16735.0,37,16740.0,12,16740.0,16745.0,16720.0,16725.0,508,-214,16725,25,16730,45
2016-07-21 13:07:00,13:07:14,13:07:47,41729,41871,16725.0,58,16730.0,48,16725.0,16725.0,16725.0,16725.0,246,57,16725,6,16730,54
2016-07-21 13:08:00,13:08:22,13:08:56,41916,42029,16725.0,40,16730.0,49,16725.0,16730.0,16725.0,16730.0,140,-10,16730,11,16735,57
2016-07-21 13:09:00,13:09:03,13:09:41,42041,42148,16730.0,40,16735.0,37,16735.0,16735.0,16735.0,16735.0,120,66,16735,1,16740,54
2016-07-21 13:10:00,13:10:03,13:10:59,42178,42301,16730.0,53,16735.0,24,16735.0,16745.0,16730.0,16745.0,131,101,16740,56,16745,2
2016-07-21 13:11:00,13:11:01,13:11:54,42307,42488,16740.0,54,16745.0,12,16745.0,16750.0,16740.0,16745.0,262,189,16740,42,16745,2
2016-07-21 13:12:00,13:12:05,13:12:21,42505,42537,16740.0,16,16745.0,40,16740.0,16740.0,16740.0,16740.0,28,-4,16735,40,16740,3
2016-07-21 13:13:00,13:13:30,13:13:58,42566,42625,16735.0,16,16740.0,44,16735.0,16735.0,16735.0,16735.0,41,-13,16735,2,16740,55
2016-07-21 13:14:00,13:14:02,13:14:59,42634,42755,16735.0,6,16740.0,50,16735.0,16735.0,16730.0,16730.0,86,-25,16730,18,16735,35
2016-07-21 13:15:00,13:15:27,13:15:58,42785,42959,16730.0,33,16735.0,24,16730.0,16730.0,16720.0,16725.0,263,-208,16720,51,16725,16
2016-07-21 13:16:00,13:16:03,13:16:48,42969,43084,16720.0,47,16725.0,11,16725.0,16725.0,16725.0,16725.0,72,4,16725,1,16730,57
2016-07-21 13:17:00,13:17:11,13:17:54,43111,43238,16725.0,37,16730.0,53,16730.0,16730.0,16730.0,16730.0,115,33,16730,3,16735,56
2016-07-21 13:18:00,13:18:05,13:18:43,43254,43328,16730.0,16,16735.0,57,16730.0,16735.0,16730.0,16730.0,41,-5,16730,41,16735,6
2016-07-21 13:19:00,13:19:02,13:19:49,43338,43493,16730.0,41,16735.0,6,16735.0,16740.0,16730.0,16735.0,180,-20,16730,33,16735,6
2016-07-21 13:20:00,13:20:02,13:20:56,43506,43578,16730.0,35,16735.0,6,16735.0,16740.0,16730.0,16730.0,35,-3,16730,41,16735,7
2016-07-21 13:21:00,13:21:10,13:21:59,43585,43718,16730.0,40,16735.0,7,16735.0,16750.0,16735.0,16745.0,115,29,16740,43,16750,36
2016-07-21 13:22:00,13:22:00,13:22:59,43722,43901,16740.0,43,16750.0,39,16745.0,16760.0,16745.0,16755.0,193,92,16750,32,16760,48
2016-07-21 13:23:00,13:23:01,13:23:51,43905,44083,16755.0,1,16760.0,48,16755.0,16755.0,16750.0,16750.0,161,-53,16750,28,16755,33
2016-07-21 13:24:00,13:24:07,13:24:57,44089,44169,16750.0,31,16755.0,16,16755.0,16760.0,16750.0,16750.0,69,-25,16750,25,16755,34
2016-07-21 13:25:00,13:25:14,13:25:57,44196,44253,16750.0,50,16755.0,9,16755.0,16755.0,16755.0,16755.0,50,-14,16750,41,16755,19
2016-07-21 13:26:00,13:26:06,13:26:26,44258,44313,16755.0,6,16760.0,47,16755.0,16755.0,16755.0,16755.0,87,-45,16755,16,16760,43
2016-07-21 13:27:00,13:27:04,13:27:43,44328,44416,16755.0,37,16760.0,36,16760.0,16770.0,16760.0,16765.0,90,54,16765,7,16770,29
2016-07-21 13:28:00,13:28:02,13:28:59,44443,44673,16765.0,31,16770.0,22,16770.0,16770.0,16765.0,16770.0,244,60,16765,49,16775,44
2016-07-21 13:29:00,13:29:00,13:29:45,44678,44762,16770.0,9,16775.0,44,16770.0,16775.0,16770.0,16770.0,64,4,16770,30,16775,38
2016-07-21 13:30:00,13:30:20,13:30:54,44786,44866,16770.0,16,16775.0,42,16770.0,16770.0,16765.0,16765.0,94,-30,16765,28,16770,49
2016-07-21 13:31:00,13:31:08,13:31:45,44876,44959,16765.0,30,16770.0,40,16770.0,16775.0,16770.0,16775.0,94,-24,16770,31,16775,25
2016-07-21 13:32:00,13:32:19,13:32:59,44983,45067,16770.0,29,16775.0,28,16775.0,16775.0,16775.0,16775.0,107,13,16770,35,16775,4
2016-07-21 13:33:00,13:33:00,13:33:49,45068,45141,16775.0,41,16780.0,43,16775.0,16775.0,16770.0,16775.0,37,-15,16770,21,16775,39
2016-07-21 13:34:00,13:34:08,13:34:48,45152,45191,16770.0,16,16775.0,39,16770.0,16770.0,16770.0,16770.0,16,-14,16765,36,16770,33
2016-07-21 13:35:00,13:35:08,13:35:58,45210,45264,16765.0,50,16770.0,12,16770.0,16775.0,16770.0,16775.0,28,28,16775,23,16780,54
2016-07-21 13:36:00,13:36:00,13:36:55,45270,45439,16775.0,25,16780.0,58,16775.0,16780.0,16775.0,16780.0,192,-44,16780,1,16785,51
2016-07-21 13:37:00,13:37:08,13:37:55,45457,45527,16780.0,16,16785.0,45,16785.0,16785.0,16780.0,16780.0,43,9,16775,31,16780,27
2016-07-21 13:38:00,13:38:06,13:38:53,45546,45664,16775.0,30,16780.0,28,16780.0,16790.0,16780.0,16790.0,127,29,16785,41,16790,9
2016-07-21 13:39:00,13:39:09,13:39:56,45686,45783,16785.0,40,16790.0,18,16790.0,16790.0,16780.0,16785.0,105,-57,16785,24,16790,42
2016-07-21 13:40:00,13:40:04,13:40:36,45797,45870,16785.0,48,16790.0,25,16790.0,16790.0,16790.0,16790.0,50,12,16785,36,16790,35
2016-07-21 13:41:00,13:41:01,13:41:54,45889,46009,16785.0,57,16790.0,16,16790.0,16790.0,16780.0,16780.0,114,-26,16780,37,16785,35
2016-07-21 13:42:00,13:42:03,13:42:53,46011,46118,16780.0,37,16785.0,36,16785.0,16795.0,16785.0,16795.0,67,44,16790,33,16795,35
2016-07-21 13:43:00,13:43:08,13:43:57,46130,46354,16790.0,39,16795.0,32,16795.0,16810.0,16795.0,16805.0,269,115,16800,44,16805,3
2016-07-21 13:44:00,13:44:02,13:44:59,46362,46675,16800.0,44,16805.0,29,16800.0,16800.0,16795.0,16800.0,517,165,16795,13,16800,10
2016-07-21 13:45:00,13:45:00,13:45:53,46677,46810,16795.0,42,16800.0,10,16800.0,16800.0,16790.0,16795.0,133,93,16795,4,16800,59
2016-07-21 13:46:00,13:46:02,13:46:56,46819,46931,16795.0,16,16800.0,59,16795.0,16795.0,16780.0,16785.0,120,-44,16780,48,16785,12
2016-07-21 13:47:00,13:47:02,13:47:03,46937,46943,16780.0,54,16785.0,6,16785.0,16785.0,16785.0,16785.0,9,3,16780,54,16785,10
2016-07-21 13:48:00,13:48:01,13:48:59,47013,47324,16780.0,50,16785.0,52,16780.0,16790.0,16780.0,16780.0,463,97,16775,38,16780,9
2016-07-21 13:49:00,13:49:01,13:49:38,47333,47447,16775.0,58,16780.0,5,16780.0,16785.0,16780.0,16780.0,93,13,16775,48,16780,30
2016-07-21 13:50:00,13:50:07,13:50:51,47487,47617,16775.0,22,16780.0,58,16775.0,16785.0,16775.0,16780.0,156,28,16775,18,16780,32
2016-07-21 13:51:00,13:51:13,13:51:54,47649,47693,16775.0,12,16780.0,46,16775.0,16775.0,16775.0,16775.0,26,-2,16775,10,16780,40
2016-07-21 13:52:00,13:52:06,13:52:48,47708,47921,16775.0,24,16780.0,38,16780.0,16785.0,16780.0,16785.0,286,29,16780,44,16785,8
2016-07-21 13:53:00,13:53:07,13:53:42,47938,48035,16780.0,23,16785.0,40,16780.0,16785.0,16775.0,16775.0,160,-92,16775,12,16780,48
2016-07-21 13:54:00,13:54:03,13:54:59,48050,48140,16775.0,36,16780.0,49,16775.0,16775.0,16765.0,16765.0,108,-72,16765,28,16775,37
2016-07-21 13:55:00,13:55:00,13:55:35,48142,48286,16765.0,28,16770.0,42,16770.0,16775.0,16765.0,16770.0,135,61,16770,33,16775,29
2016-07-21 13:56:00,13:56:03,13:56:57,48311,48514,16770.0,45,16775.0,18,16775.0,16780.0,16775.0,16775.0,255,87,16775,5,16775,3
2016-07-21 13:57:00,13:57:00,13:57:57,48520,48667,16770.0,51,16775.0,6,16775.0,16775.0,16770.0,16775.0,132,-9,16770,49,16775,3
2016-07-21 13:58:00,13:58:00,13:58:56,48675,48898,16770.0,47,16775.0,12,16775.0,16775.0,16770.0,16775.0,242,24,16770,33,16780,67
2016-07-21 13:59:00,13:59:00,13:59:58,48902,49264,16770.0,48,16775.0,19,16770.0,16790.0,16770.0,16785.0,465,76,16785,58,16790,29
2016-07-21 14:00:00,14:00:00,14:00:55,49267,49909,16785.0,58,16790.0,29,16790.0,16800.0,16785.0,16785.0,1543,278,16780,60,16785,14
2016-07-21 14:01:00,14:01:00,14:01:59,49920,50296,16780.0,67,16785.0,68,16785.0,16795.0,16785.0,16795.0,575,-104,16790,70,16795,56
2016-07-21 14:02:00,14:02:10,14:02:52,50306,50443,16790.0,73,16795.0,57,16795.0,16800.0,16795.0,16795.0,196,41,16795,25,16800,97
2016-07-21 14:03:00,14:03:00,14:03:58,50448,50706,16795.0,30,16800.0,97,16800.0,16800.0,16785.0,16785.0,440,-37,16780,101,16785,29
2016-07-21 14:04:00,14:04:00,14:04:58,50708,50879,16780.0,100,16785.0,29,16785.0,16790.0,16780.0,16785.0,279,-72,16780,97,16785,13
2016-07-21 14:05:00,14:05:00,14:05:53,50883,51021,16780.0,97,16785.0,14,16785.0,16790.0,16785.0,16785.0,198,12,16780,92,16790,71
2016-07-21 14:06:00,14:06:00,14:06:55,51036,51239,16780.0,96,16785.0,13,16785.0,16795.0,16785.0,16795.0,251,187,16795,16,16800,124
2016-07-21 14:07:00,14:07:02,14:07:57,51246,51473,16795.0,14,16800.0,124,16795.0,16800.0,16790.0,16795.0,382,-2,16790,75,16795,9
2016-07-21 14:08:00,14:08:00,14:08:58,51480,51591,16790.0,73,16795.0,35,16795.0,16800.0,16795.0,16795.0,160,20,16795,32,16800,96
2016-07-21 14:09:00,14:09:00,14:09:58,51595,51761,16795.0,26,16800.0,99,16795.0,16800.0,16790.0,16795.0,221,77,16790,54,16800,73
