,ST,ET,sidx,eidx,bB,bBS,bA,bAS,O,H,L,C,V,OF,eB,eBS,eA,eAS
2016-09-13 08:00:00,08:00:00,08:00:59,3073,3723,16640.0,59,16645.0,198,16640.0,16650.0,16625.0,16635.0,1210,-144,16635,37,16640,88
2016-09-13 08:01:00,08:01:03,08:01:59,3737,3949,16635.0,35,16640.0,98,16640.0,16645.0,16635.0,16645.0,267,77,16640,57,16645,1
2016-09-13 08:02:00,08:02:00,08:02:59,3953,4121,16640.0,57,16645.0,2,16645.0,16650.0,16640.0,16640.0,177,-51,16640,47,16645,46
2016-09-13 08:03:00,08:03:01,08:03:56,4124,4271,16640.0,47,16645.0,46,16645.0,16645.0,16640.0,16640.0,91,-45,16640,30,16645,50
2016-09-13 08:04:00,08:04:00,08:04:58,4277,4541,16640.0,30,16645.0,49,16640.0,16645.0,16630.0,16635.0,247,-3,16635,20,16640,58
2016-09-13 08:05:00,08:05:01,08:05:57,4548,4852,16635.0,22,16640.0,56,16635.0,16635.0,16620.0,16630.0,385,-37,16625,45,16630,15
2016-09-13 08:06:00,08:06:04,08:06:58,4869,5177,16625.0,35,16630.0,34,16630.0,16635.0,16630.0,16630.0,472,-196,16630,45,16635,29
2016-09-13 08:07:00,08:07:00,08:07:59,5182,5657,16630.0,45,16635.0,34,16630.0,16650.0,16625.0,16645.0,739,211,16640,52,16645,47
2016-09-13 08:08:00,08:08:00,08:08:58,5664,5902,16640.0,92,16645.0,27,16645.0,16650.0,16640.0,16650.0,394,-184,16645,65,16650,46
2016-09-13 08:09:00,08:09:02,08:09:59,5907,6058,16645.0,65,16650.0,47,16650.0,16650.0,16650.0,16650.0,114,54,16645,179,16650,25
2016-09-13 08:10:00,08:10:19,08:10:57,6089,6163,16645.0,180,16650.0,49,16650.0,16650.0,16645.0,16645.0,178,-130,16640,58,16645,30
2016-09-13 08:11:00,08:11:03,08:11:54,6182,6383,16640.0,42,16645.0,62,16640.0,16645.0,16640.0,16640.0,237,-25,16640,56,16645,30
2016-09-13 08:12:00,08:12:00,08:12:48,6392,6541,16640.0,54,16645.0,26,16645.0,16650.0,16645.0,16645.0,151,33,16645,46,16650,13
2016-09-13 08:13:00,08:13:11,08:13:59,6555,6651,16645.0,37,16650.0,43,16645.0,16650.0,16645.0,16650.0,77,7,16645,50,16650,20
2016-09-13 08:14:00,08:14:09,08:14:57,6663,6826,16645.0,55,16650.0,29,16650.0,16660.0,16645.0,16655.0,174,48,16650,26,16655,37
2016-09-13 08:15:00,08:15:00,08:15:32,6834,7070,16650.0,30,16655.0,40,16655.0,16660.0,16650.0,16660.0,287,26,16655,60,16660,27
2016-09-13 08:16:00,08:16:22,08:16:55,7133,7189,16655.0,60,16660.0,44,16655.0,16660.0,16655.0,16655.0,72,-50,16650,21,16655,71
2016-09-13 08:17:00,08:17:03,08:17:42,7204,7357,16650.0,38,16655.0,79,16650.0,16655.0,16650.0,16650.0,166,14,16650,27,16655,53
2016-09-13 08:18:00,08:18:16,08:18:59,7388,7530,16650.0,33,16655.0,59,16650.0,16650.0,16640.0,16640.0,168,-132,16635,56,16640,12
2016-09-13 08:19:00,08:19:00,08:19:46,7531,7641,16640.0,59,16645.0,61,16640.0,16640.0,16640.0,16640.0,124,-20,16640,20,16645,81
2016-09-13 08:20:00,08:20:00,08:20:56,7644,7851,16640.0,20,16645.0,81,16645.0,16645.0,16635.0,16635.0,194,4,16630,44,16635,58
2016-09-13 08:21:00,08:21:09,08:21:53,7869,8085,16630.0,35,16635.0,76,16630.0,16630.0,16625.0,16630.0,260,-30,16625,35,16630,35
2016-09-13 08:22:00,08:22:01,08:22:54,8097,8260,16625.0,29,16630.0,41,16625.0,16630.0,16625.0,16625.0,147,37,16620,34,16625,32
2016-09-13 08:23:00,08:23:00,08:23:00,0,0,0.0,0,0.0,0,16625.0,16625.0,16625.0,16625.0,0,0,0,0,0,0
2016-09-13 08:24:00,08:24:50,08:24:50,8401,8403,16620.0,39,16625.0,50,16625.0,16625.0,16625.0,16625.0,3,3,16620,46,16625,46
2016-09-13 08:25:00,08:25:05,08:25:22,8435,8530,16620.0,46,16625.0,46,16620.0,16625.0,16620.0,16625.0,99,63,16620,48,16625,35
2016-09-13 08:26:00,08:26:00,08:26:59,8561,8728,16620.0,48,16625.0,50,16620.0,16625.0,16615.0,16620.0,138,-80,16615,50,16620,7
2016-09-13 08:27:00,08:27:00,08:27:58,8731,8874,16615.0,50,16620.0,7,16620.0,16625.0,16620.0,16625.0,118,74,16620,29,16625,48
2016-09-13 08:28:00,08:28:36,08:28:53,8907,9000,16620.0,41,16625.0,30,16625.0,16630.0,16625.0,16630.0,141,107,16625,42,16630,39
2016-09-13 08:29:00,08:29:10,08:29:56,9024,9197,16625.0,34,16630.0,49,16625.0,16625.0,16620.0,16620.0,224,46,16615,27,16620,52
2016-09-13 08:30:00,08:30:05,08:30:54,9213,9515,16615.0,31,16620.0,63,16615.0,16615.0,16600.0,16605.0,478,-102,16600,64,16605,22
2016-09-13 08:31:00,08:31:00,08:31:37,9523,9593,16600.0,76,16605.0,24,16605.0,16605.0,16605.0,16605.0,27,27,16600,77,16605,29
2016-09-13 08:32:00,08:32:02,08:32:53,9615,9716,16600.0,77,16605.0,45,16605.0,16610.0,16605.0,16610.0,62,62,16605,76,16610,41
2016-09-13 08:33:00,08:33:04,08:33:59,9731,9853,16605.0,88,16610.0,44,16605.0,16610.0,16605.0,16605.0,113,-63,16600,64,16605,7
2016-09-13 08:34:00,08:34:00,08:34:24,9854,9978,16605.0,20,16610.0,54,16605.0,16610.0,16605.0,16610.0,188,162,16605,43,16610,25
2016-09-13 08:35:00,08:35:07,08:35:33,10017,10049,16605.0,57,16610.0,30,16610.0,16610.0,16605.0,16605.0,14,2,16605,20,16610,59
2016-09-13 08:36:00,08:36:02,08:36:59,10086,10247,16605.0,49,16610.0,33,16610.0,16610.0,16600.0,16600.0,165,-31,16595,63,16605,50
2016-09-13 08:37:00,08:37:00,08:37:49,10248,10429,16600.0,10,16605.0,52,16600.0,16605.0,16590.0,16595.0,222,-102,16590,54,16595,18
2016-09-13 08:38:00,08:38:37,08:38:56,10502,10591,16590.0,63,16595.0,160,16590.0,16595.0,16590.0,16595.0,137,-85,16595,12,16600,90
2016-09-13 08:39:00,08:39:17,08:39:52,10608,10638,16595.0,49,16600.0,89,16595.0,16600.0,16595.0,16600.0,27,-13,16595,35,16600,88
2016-09-13 08:40:00,08:40:02,08:40:33,10643,10672,16595.0,34,16600.0,89,16600.0,16600.0,16595.0,16600.0,14,8,16595,56,16600,86
2016-09-13 08:41:00,08:41:08,08:41:36,10689,10757,16595.0,27,16600.0,107,16600.0,16600.0,16595.0,16595.0,60,-22,16595,9,16600,79
2016-09-13 08:42:00,08:42:19,08:42:57,10796,10864,16595.0,53,16600.0,85,16595.0,16600.0,16595.0,16600.0,83,65,16595,72,16600,40
2016-09-13 08:43:00,08:43:00,08:43:37,10875,10975,16595.0,70,16600.0,49,16600.0,16600.0,16595.0,16600.0,113,105,16595,55,16600,71
2016-09-13 08:44:00,08:44:12,08:44:55,11010,11197,16595.0,47,16600.0,90,16595.0,16595.0,16590.0,16590.0,267,-150,16590,25,16595,57
2016-09-13 08:45:00,08:45:00,08:45:55,11206,11405,16590.0,34,16595.0,57,16590.0,16590.0,16580.0,16580.0,167,-33,16580,35,16585,58
2016-09-13 08:46:00,08:46:00,08:46:54,11412,11657,16580.0,37,16585.0,60,16580.0,16585.0,16575.0,16585.0,258,85,16580,64,16585,2
2016-09-13 08:47:00,08:47:00,08:47:36,11668,11781,16580.0,61,16585.0,30,16580.0,16590.0,16580.0,16590.0,78,-16,16590,23,16595,49
2016-09-13 08:48:00,08:48:03,08:48:51,11818,11987,16590.0,59,16595.0,22,16595.0,16600.0,16595.0,16595.0,259,55,16595,51,16600,36
2016-09-13 08:49:00,08:49:01,08:49:59,11993,12159,16595.0,51,16600.0,38,16600.0,16605.0,16600.0,16605.0,198,-48,16605,16,16610,51
2016-09-13 08:50:00,08:50:03,08:50:57,12168,12342,16605.0,27,16610.0,56,16605.0,16610.0,16605.0,16605.0,257,-169,16605,9,16610,92
2016-09-13 08:51:00,08:51:04,08:51:50,12359,12428,16605.0,23,16610.0,86,16605.0,16605.0,16605.0,16605.0,20,-20,16605,47,16610,77
2016-09-13 08:52:00,08:52:10,08:52:56,12447,12563,16605.0,28,16610.0,99,16605.0,16605.0,16600.0,16600.0,154,-110,16595,46,16600,63
2016-09-13 08:53:00,08:53:00,08:53:27,12570,12667,16595.0,48,16600.0,66,16595.0,16600.0,16595.0,16600.0,130,38,16595,53,16600,32
2016-09-13 08:54:00,08:54:01,08:54:59,12707,12888,16595.0,46,16600.0,53,16595.0,16595.0,16590.0,16595.0,186,-5,16595,9,16600,53
2016-09-13 08:55:00,08:55:00,08:55:21,12889,12962,16590.0,45,16595.0,31,16595.0,16595.0,16595.0,16595.0,42,6,16595,10,16600,54
2016-09-13 08:56:00,08:56:06,08:56:57,13020,13184,16595.0,14,16600.0,56,16595.0,16595.0,16585.0,16585.0,158,-78,16585,46,16590,61
2016-09-13 08:57:00,08:57:01,08:57:34,13189,13258,16585.0,45,16590.0,58,16585.0,16585.0,16585.0,16585.0,44,-10,16580,72,16585,7
2016-09-13 08:58:00,08:58:01,08:58:59,13287,13400,16580.0,72,16585.0,40,16585.0,16590.0,16585.0,16585.0,94,48,16580,61,16585,3
2016-09-13 08:59:00,08:59:03,08:59:39,13409,13473,16580.0,64,16585.0,10,16585.0,16585.0,16575.0,16580.0,89,-31,16575,33,16580,23
2016-09-13 09:00:00,09:00:00,09:00:59,13499,13711,16575.0,35,16580.0,31,16575.0,16585.0,16575.0,16580.0,151,-57,16575,43,16585,51
2016-09-13 09:01:00,09:01:04,09:01:58,13728,13825,16575.0,41,16580.0,17,16580.0,16580.0,16575.0,16580.0,42,-22,16575,40,16580,29
2016-09-13 09:02:00,09:02:03,09:02:56,13838,13934,16575.0,47,16580.0,17,16580.0,16580.0,16570.0,16570.0,51,-39,16570,25,16575,88
2016-09-13 09:03:00,09:03:00,09:03:59,13938,14103,16570.0,24,16575.0,88,16570.0,16570.0,16565.0,16565.0,135,-99,16560,48,16565,8
2016-09-13 09:04:00,09:04:13,09:04:59,14131,14339,16560.0,23,16565.0,50,16560.0,16560.0,16555.0,16560.0,215,77,16560,17,16565,47
2016-09-13 09:05:00,09:05:08,09:05:58,14359,14527,16560.0,51,16565.0,31,16565.0,16575.0,16560.0,16570.0,171,99,16565,53,16570,23
2016-09-13 09:06:00,09:06:02,09:06:56,14537,14606,16565.0,50,16570.0,26,16570.0,16575.0,16570.0,16575.0,76,-18,16570,41,16575,96
2016-09-13 09:07:00,09:07:03,09:07:03,14613,14613,16570.0,47,16575.0,93,16575.0,16575.0,16575.0,16575.0,3,3,16570,50,16575,90
2016-09-13 09:08:00,09:08:02,09:08:39,14637,14664,16570.0,46,16575.0,97,16575.0,16575.0,16570.0,16575.0,7,5,16570,57,16575,82
2016-09-13 09:09:00,09:09:06,09:09:46,14680,14740,16570.0,59,16575.0,84,16575.0,16575.0,16575.0,16575.0,109,105,16575,13,16580,59
2016-09-13 09:10:00,09:10:11,09:10:55,14771,14954,16575.0,52,16580.0,34,16575.0,16585.0,16575.0,16585.0,180,14,16585,19,16590,55
2016-09-13 09:11:00,09:11:06,09:11:59,14980,15085,16585.0,21,16590.0,46,16585.0,16590.0,16585.0,16585.0,94,-6,16585,30,16585,2
2016-09-13 09:12:00,09:12:00,09:12:36,15087,15115,16580.0,63,16585.0,2,16585.0,16590.0,16585.0,16590.0,3,3,16585,50,16590,30
2016-09-13 09:13:00,09:13:01,09:13:43,15125,15160,16585.0,46,16590.0,38,16590.0,16590.0,16585.0,16590.0,5,3,16585,54,16590,25
2016-09-13 09:14:00,09:14:07,09:14:42,15172,15220,16585.0,54,16590.0,47,16585.0,16590.0,16585.0,16590.0,32,0,16585,48,16590,14
2016-09-13 09:15:00,09:15:01,09:15:44,15236,15343,16585.0,31,16590.0,29,16590.0,16590.0,16585.0,16585.0,130,-46,16580,44,16585,44
2016-09-13 09:16:00,09:16:00,09:16:32,15355,15466,16580.0,28,16585.0,58,16580.0,16580.0,16575.0,16575.0,114,-30,16570,48,16575,5
2016-09-13 09:17:00,09:17:00,09:17:34,15499,15604,16570.0,26,16575.0,51,16570.0,16575.0,16570.0,16575.0,88,-16,16570,53,16575,19
2016-09-13 09:18:00,09:18:01,09:18:52,15624,15736,16570.0,51,16575.0,26,16575.0,16575.0,16575.0,16575.0,87,-19,16570,48,16575,9
2016-09-13 09:19:00,09:19:43,09:19:56,15771,15810,16570.0,46,16575.0,13,16575.0,16575.0,16575.0,16575.0,34,31,16575,13,16580,36
2016-09-13 09:20:00,09:20:11,09:20:59,15836,15903,16575.0,34,16580.0,30,16575.0,16575.0,16575.0,16575.0,40,0,16570,41,16575,1
2016-09-13 09:21:00,09:21:05,09:21:38,15917,15971,16575.0,5,16580.0,43,16575.0,16575.0,16575.0,16575.0,29,-9,16570,37,16575,2
2016-09-13 09:22:00,09:22:08,09:22:44,16002,16140,16570.0,32,16575.0,46,16570.0,16575.0,16570.0,16575.0,127,17,16570,41,16580,41
2016-09-13 09:23:00,09:23:11,09:23:59,16175,16234,16575.0,11,16580.0,33,16575.0,16575.0,16575.0,16575.0,17,-11,16570,40,16580,31
2016-09-13 09:24:00,09:24:14,09:24:59,16254,16351,16575.0,5,16580.0,28,16575.0,16585.0,16575.0,16585.0,62,11,16580,38,16585,72
2016-09-13 09:25:00,09:25:08,09:25:59,16364,16468,16580.0,53,16585.0,79,16585.0,16585.0,16580.0,16580.0,106,14,16580,6,16580,2
2016-09-13 09:26:00,09:26:01,09:26:47,16472,16571,16575.0,46,16580.0,3,16580.0,16580.0,16580.0,16580.0,84,-40,16575,26,16580,38
2016-09-13 09:27:00,09:27:10,09:27:27,16595,16640,16575.0,27,16580.0,30,16575.0,16575.0,16575.0,16575.0,35,-13,16575,15,16580,34
2016-09-13 09:28:00,09:28:06,09:28:31,16676,16743,16575.0,25,16580.0,30,16580.0,16580.0,16580.0,16580.0,40,-2,16580,12,16585,79
2016-09-13 09:29:00,09:29:05,09:29:56,16767,16856,16580.0,16,16585.0,86,16580.0,16580.0,16580.0,16580.0,49,-11,16575,36,16580,16
2016-09-13 09:30:00,09:30:00,09:30:59,16862,17008,16575.0,41,16580.0,15,16580.0,16590.0,16580.0,16585.0,89,43,16585,7,16590,49
2016-09-13 09:31:00,09:31:00,09:31:59,17009,17225,16580.0,49,16585.0,25,16585.0,16590.0,16585.0,16585.0,272,-44,16580,62,16590,45
2016-09-13 09:32:00,09:32:00,09:32:58,17228,17386,16580.0,62,16590.0,45,16590.0,16590.0,16580.0,16585.0,152,45,16580,43,16585,9
2016-09-13 09:33:00,09:33:08,09:33:56,17411,17556,16580.0,48,16585.0,17,16585.0,16585.0,16585.0,16585.0,137,97,16580,45,16585,8
2016-09-13 09:34:00,09:34:09,09:34:52,17568,17797,16580.0,48,16585.0,5,16585.0,16585.0,16575.0,16580.0,401,-51,16575,31,16580,21
2016-09-13 09:35:00,09:35:19,09:35:37,17834,17888,16575.0,40,16580.0,26,16580.0,16580.0,16580.0,16580.0,68,48,16580,4,16585,42
2016-09-13 09:36:00,09:36:01,09:36:55,17915,18076,16580.0,11,16585.0,40,16580.0,16585.0,16580.0,16585.0,110,-23,16580,25,16585,34
2016-09-13 09:37:00,09:37:04,09:37:59,18090,18237,16580.0,9,16585.0,42,16585.0,16585.0,16575.0,16580.0,175,125,16575,31,16580,2
2016-09-13 09:38:00,09:38:00,09:38:56,18240,18318,16575.0,31,16580.0,2,16580.0,16580.0,16580.0,16580.0,12,12,16575,32,16580,36
2016-09-13 09:39:00,09:39:02,09:39:56,18330,18491,16575.0,34,16580.0,36,16580.0,16580.0,16570.0,16575.0,101,37,16570,40,16575,29
2016-09-13 09:40:00,09:40:06,09:40:57,18500,18600,16570.0,41,16575.0,25,16575.0,16575.0,16575.0,16575.0,65,49,16570,42,16575,17
2016-09-13 09:41:00,09:41:13,09:41:58,18630,18764,16570.0,26,16575.0,43,16575.0,16575.0,16570.0,16575.0,134,20,16570,16,16575,41
2016-09-13 09:42:00,09:42:00,09:42:46,18768,18920,16570.0,16,16575.0,42,16570.0,16580.0,16570.0,16575.0,121,9,16575,19,16580,38
2016-09-13 09:43:00,09:43:01,09:43:49,18941,19070,16575.0,30,16580.0,38,16580.0,16590.0,16580.0,16590.0,117,97,16590,6,16595,39
2016-09-13 09:44:00,09:44:05,09:44:49,19099,19244,16590.0,31,16595.0,38,16595.0,16595.0,16590.0,16595.0,142,78,16590,40,16595,2
2016-09-13 09:45:00,09:45:00,09:45:56,19259,19397,16590.0,37,16595.0,13,16595.0,16595.0,16595.0,16595.0,128,-21,16595,26,16600,41
2016-09-13 09:46:00,09:46:06,09:46:50,19406,19462,16595.0,24,16600.0,41,16600.0,16600.0,16595.0,16595.0,49,-17,16590,33,16595,9
2016-09-13 09:47:00,09:47:40,09:47:58,19499,19548,16590.0,32,16595.0,38,16590.0,16590.0,16590.0,16590.0,52,-30,16590,8,16595,40
2016-09-13 09:48:00,09:48:00,09:48:56,19553,19688,16590.0,7,16595.0,42,16590.0,16590.0,16590.0,16590.0,90,-7,16590,12,16595,38
2016-09-13 09:49:00,09:49:40,09:49:55,19737,19796,16590.0,46,16595.0,34,16590.0,16595.0,16590.0,16595.0,66,62,16590,38,16595,1
2016-09-13 09:50:00,09:50:48,09:50:48,19831,19846,16590.0,49,16595.0,17,16595.0,16595.0,16595.0,16595.0,27,27,16590,51,16600,53
2016-09-13 09:51:00,09:51:02,09:51:52,19868,20012,16590.0,41,16595.0,29,16590.0,16590.0,16585.0,16585.0,131,-7,16580,34,16585,21
2016-09-13 09:52:00,09:52:36,09:52:54,20043,20112,16580.0,10,16585.0,45,16580.0,16585.0,16580.0,16580.0,77,15,16580,12,16585,39
2016-09-13 09:53:00,09:53:03,09:53:49,20125,20251,16575.0,40,16580.0,3,16580.0,16580.0,16570.0,16570.0,137,-45,16565,43,16575,91
2016-09-13 09:54:00,09:54:04,09:54:58,20264,20422,16570.0,12,16575.0,94,16570.0,16575.0,16570.0,16570.0,125,-17,16565,38,16570,11
2016-09-13 09:55:00,09:55:06,09:55:57,20432,20580,16565.0,31,16570.0,32,16570.0,16570.0,16565.0,16565.0,109,-31,16565,18,16570,45
2016-09-13 09:56:00,09:56:04,09:56:58,20589,20736,16565.0,112,16570.0,26,16570.0,16575.0,16570.0,16570.0,149,119,16565,32,16570,4
2016-09-13 09:57:00,09:57:08,09:57:59,20741,20824,16565.0,32,16570.0,4,16570.0,16575.0,16570.0,16570.0,49,29,16565,46,16570,18
2016-09-13 09:58:00,09:58:09,09:58:43,20830,20928,16565.0,49,16570.0,19,16570.0,16575.0,16570.0,16570.0,106,-11,16565,34,16570,8
2016-09-13 09:59:00,09:59:00,09:59:46,20940,21033,16565.0,34,16570.0,20,16570.0,16570.0,16565.0,16565.0,63,-3,16560,31,16570,34
2016-09-13 10:00:00,10:00:00,10:00:59,21043,21212,16560.0,31,16570.0,37,16570.0,16575.0,16565.0,16570.0,177,-82,16570,9,16575,109
2016-09-13 10:01:00,10:01:00,10:01:52,21215,21307,16570.0,9,16575.0,109,16570.0,16580.0,16570.0,16580.0,149,57,16575,9,16580,77
2016-09-13 10:02:00,10:02:02,10:02:59,21320,21407,16575.0,42,16580.0,69,16575.0,16575.0,16575.0,16575.0,59,19,16570,43,16575,10
2016-09-13 10:03:00,10:03:03,10:03:54,21414,21451,16570.0,43,16575.0,11,16575.0,16580.0,16575.0,16580.0,10,10,16575,55,16580,56
2016-09-13 10:04:00,10:04:02,10:04:52,21462,21583,16575.0,24,16580.0,64,16575.0,16575.0,16570.0,16570.0,158,-58,16570,11,16575,55
2016-09-13 10:05:00,10:05:02,10:05:45,21590,21692,16570.0,10,16575.0,55,16570.0,16575.0,16570.0,16570.0,93,-35,16565,43,16570,8
2016-09-13 10:06:00,10:06:07,10:06:56,21704,21900,16565.0,44,16570.0,39,16565.0,16565.0,16555.0,16555.0,189,-34,16555,1,16560,55
2016-09-13 10:07:00,10:07:00,10:07:52,21912,22072,16550.0,72,16555.0,8,16555.0,16560.0,16555.0,16555.0,103,66,16550,74,16560,65
2016-09-13 10:08:00,10:08:06,10:08:54,22100,22215,16555.0,23,16560.0,54,16555.0,16555.0,16555.0,16555.0,60,1,16555,1,16560,66
2016-09-13 10:09:00,10:09:11,10:09:56,22249,22345,16555.0,33,16560.0,59,16555.0,16555.0,16550.0,16550.0,72,-18,16550,71,16555,17
2016-09-13 10:10:00,10:10:07,10:10:50,22361,22498,16550.0,68,16555.0,29,16555.0,16560.0,16550.0,16555.0,274,-20,16550,63,16555,35
2016-09-13 10:11:00,10:11:20,10:11:56,22533,22560,16550.0,69,16555.0,46,16555.0,16555.0,16550.0,16550.0,2,0,16550,62,16555,73
2016-09-13 10:12:00,10:12:06,10:12:49,22574,22696,16550.0,59,16555.0,102,16555.0,16555.0,16550.0,16550.0,230,-8,16550,29,16555,48
2016-09-13 10:13:00,10:13:00,10:13:00,0,0,0.0,0,0.0,0,16550.0,16550.0,16550.0,16550.0,0,0,0,0,0,0
2016-09-13 10:14:00,10:14:04,10:14:51,22760,22964,16550.0,36,16555.0,45,16555.0,16555.0,16550.0,16555.0,241,7,16550,55,16555,16
2016-09-13 10:15:00,10:15:05,10:15:43,22987,23055,16550.0,55,16555.0,28,16555.0,16560.0,16555.0,16560.0,53,53,16555,29,16560,32
2016-09-13 10:16:00,10:16:21,10:16:46,23094,23179,16555.0,34,16560.0,51,16555.0,16555.0,16545.0,16545.0,113,-55,16545,25,16550,59
2016-09-13 10:17:00,10:17:03,10:17:54,23200,23477,16545.0,36,16550.0,60,16545.0,16545.0,16530.0,16545.0,310,43,16540,39,16545,2
2016-09-13 10:18:00,10:18:15,10:18:57,23513,23625,16540.0,44,16545.0,39,16545.0,16550.0,16545.0,16550.0,95,57,16550,17,16555,36
2016-09-13 10:19:00,10:19:08,10:19:57,23636,23705,16550.0,26,16555.0,40,16550.0,16555.0,16550.0,16555.0,52,2,16550,41,16555,49
2016-09-13 10:20:00,10:20:02,10:20:59,23712,23875,16550.0,21,16555.0,63,16550.0,16555.0,16550.0,16550.0,211,-67,16550,16,16555,53
2016-09-13 10:21:00,10:21:09,10:21:37,23884,23942,16550.0,19,16555.0,53,16550.0,16555.0,16550.0,16550.0,69,-13,16550,26,16555,34
2016-09-13 10:22:00,10:22:13,10:22:45,23981,24063,16550.0,35,16555.0,40,16550.0,16550.0,16545.0,16550.0,147,79,16550,10,16555,41
2016-09-13 10:23:00,10:23:03,10:23:30,24081,24180,16550.0,39,16555.0,32,16555.0,16555.0,16550.0,16550.0,82,38,16550,53,16555,7
2016-09-13 10:24:00,10:24:09,10:24:52,24229,24358,16550.0,36,16555.0,28,16550.0,16550.0,16545.0,16550.0,109,8,16545,52,16555,38
2016-09-13 10:25:00,10:25:09,10:25:48,24383,24488,16545.0,22,16550.0,77,16545.0,16545.0,16540.0,16540.0,156,-96,16540,16,16545,117
2016-09-13 10:26:00,10:26:05,10:26:42,24507,24595,16540.0,37,16545.0,109,16540.0,16545.0,16540.0,16545.0,157,39,16540,44,16545,36
2016-09-13 10:27:00,10:27:09,10:27:37,24621,24685,16540.0,57,16545.0,44,16540.0,16545.0,16540.0,16545.0,91,5,16545,6,16550,73
2016-09-13 10:28:00,10:28:08,10:28:59,24719,24808,16545.0,11,16550.0,84,16545.0,16545.0,16540.0,16545.0,61,-61,16545,24,16550,76
2016-09-13 10:29:00,10:29:13,10:29:59,24821,24934,16545.0,32,16550.0,75,16545.0,16550.0,16545.0,16545.0,99,-87,16545,21,16550,71
2016-09-13 10:30:00,10:30:04,10:30:59,24946,25255,16545.0,26,16550.0,80,16545.0,16560.0,16540.0,16560.0,432,160,16555,42,16565,90
2016-09-13 10:31:00,10:31:00,10:31:54,25256,25416,16560.0,53,16565.0,72,16560.0,16565.0,16550.0,16555.0,202,-117,16550,58,16560,46
2016-09-13 10:32:00,10:32:06,10:32:58,25422,25522,16550.0,58,16555.0,16,16555.0,16555.0,16550.0,16550.0,109,13,16550,16,16555,46
2016-09-13 10:33:00,10:33:00,10:33:59,25528,25629,16550.0,9,16555.0,48,16550.0,16550.0,16545.0,16550.0,69,-51,16545,41,16555,40
2016-09-13 10:34:00,10:34:02,10:34:33,25637,25655,16545.0,44,16550.0,1,16550.0,16550.0,16550.0,16550.0,13,-9,16550,13,16555,32
2016-09-13 10:35:00,10:35:08,10:35:45,25681,25756,16550.0,29,16555.0,25,16550.0,16555.0,16550.0,16555.0,68,-8,16550,32,16555,40
2016-09-13 10:36:00,10:36:00,10:36:55,25767,25930,16550.0,31,16555.0,90,16555.0,16560.0,16550.0,16560.0,234,173,16560,3,16565,49
2016-09-13 10:37:00,10:37:02,10:37:23,25941,25981,16560.0,31,16565.0,44,16560.0,16560.0,16560.0,16560.0,30,16,16555,40,16560,46
2016-09-13 10:38:00,10:38:14,10:38:56,26001,26051,16555.0,14,16560.0,67,16555.0,16560.0,16555.0,16560.0,50,0,16555,47,16560,39
2016-09-13 10:39:00,10:39:02,10:39:54,26059,26117,16555.0,40,16560.0,42,16555.0,16560.0,16555.0,16555.0,48,2,16555,33,16560,33
2016-09-13 10:40:00,10:40:03,10:40:56,26123,26235,16555.0,40,16560.0,31,16560.0,16560.0,16560.0,16560.0,114,92,16555,49,16565,63
2016-09-13 10:41:00,10:41:22,10:41:33,26252,26274,16555.0,48,16560.0,10,16560.0,16560.0,16560.0,16560.0,38,-4,16560,5,16565,61
2016-09-13 10:42:00,10:42:00,10:42:59,26293,26358,16560.0,2,16565.0,84,16565.0,16565.0,16560.0,16560.0,61,35,16560,20,16565,58
2016-09-13 10:43:00,10:43:30,10:43:54,26376,26456,16560.0,28,16565.0,57,16565.0,16565.0,16560.0,16560.0,108,68,16555,36,16560,9
2016-09-13 10:44:00,10:44:01,10:44:54,26466,26538,16555.0,35,16560.0,9,16560.0,16565.0,16560.0,16565.0,67,46,16565,24,16570,26
2016-09-13 10:45:00,10:45:02,10:45:47,26551,26637,16565.0,21,16575.0,117,16570.0,16575.0,16565.0,16565.0,75,-28,16560,44,16565,26
2016-09-13 10:46:00,10:46:27,10:46:58,26658,26855,16560.0,44,16565.0,11,16565.0,16580.0,16565.0,16580.0,297,205,16580,41,16585,42
2016-09-13 10:47:00,10:47:04,10:47:59,26867,27179,16580.0,41,16585.0,50,16580.0,16585.0,16575.0,16585.0,430,-64,16580,91,16585,7
2016-09-13 10:48:00,10:48:00,10:48:55,27180,27337,16580.0,88,16585.0,8,16585.0,16590.0,16585.0,16590.0,166,38,16585,58,16590,4
2016-09-13 10:49:00,10:49:08,10:49:55,27352,27449,16585.0,54,16590.0,17,16585.0,16585.0,16580.0,16585.0,85,-25,16580,86,16585,2
2016-09-13 10:50:00,10:50:00,10:50:19,27454,27500,16580.0,86,16585.0,2,16585.0,16585.0,16580.0,16580.0,29,25,16580,37,16585,3
2016-09-13 10:51:00,10:51:12,10:51:28,27536,27563,16580.0,44,16585.0,10,16585.0,16585.0,16580.0,16580.0,37,-23,16580,35,16585,26
2016-09-13 10:52:00,10:52:03,10:52:42,27573,27639,16580.0,36,16585.0,32,16585.0,16585.0,16580.0,16580.0,57,-45,16580,8,16585,36
2016-09-13 10:53:00,10:53:02,10:53:26,27656,27675,16580.0,27,16585.0,34,16580.0,16580.0,16580.0,16580.0,5,-5,16580,4,16585,40
2016-09-13 10:54:00,10:54:07,10:54:55,27696,27772,16580.0,14,16585.0,37,16585.0,16585.0,16580.0,16585.0,88,30,16580,36,16585,11
2016-09-13 10:55:00,10:55:24,10:55:56,27794,27875,16580.0,39,16585.0,28,16580.0,16580.0,16580.0,16580.0,110,-102,16580,3,16585,41
2016-09-13 10:56:00,10:56:04,10:56:57,27881,27926,16580.0,9,16585.0,41,16580.0,16585.0,16580.0,16580.0,22,-18,16580,2,16585,35
2016-09-13 10:57:00,10:57:00,10:57:00,0,0,0.0,0,0.0,0,16580.0,16580.0,16580.0,16580.0,0,0,0,0,0,0
2016-09-13 10:58:00,10:58:03,10:58:37,27943,27958,16580.0,23,16585.0,36,16585.0,16585.0,16585.0,16585.0,7,7,16580,24,16585,29
2016-09-13 10:59:00,10:59:00,10:59:53,27971,28053,16580.0,24,16585.0,32,16585.0,16590.0,16585.0,16585.0,64,46,16580,43,16585,13
2016-09-13 11:00:00,11:00:15,11:00:23,28077,28088,16580.0,48,16585.0,7,16585.0,16585.0,16585.0,16585.0,9,5,16585,46,16590,49
2016-09-13 11:01:00,11:01:01,11:01:58,28095,28179,16585.0,53,16590.0,43,16590.0,16590.0,16590.0,16590.0,111,87,16590,3,16600,26
2016-09-13 11:02:00,11:02:00,11:02:54,28181,28290,16590.0,3,16595.0,52,16595.0,16595.0,16595.0,16595.0,112,65,16590,49,16595,2
2016-09-13 11:03:00,11:03:07,11:03:53,28301,28356,16590.0,49,16595.0,66,16590.0,16590.0,16585.0,16585.0,95,-79,16585,28,16590,62
2016-09-13 11:04:00,11:04:05,11:04:42,28365,28399,16585.0,31,16590.0,79,16585.0,16585.0,16585.0,16585.0,36,-36,16580,92,16585,2
2016-09-13 11:05:00,11:05:27,11:05:39,28412,28422,16580.0,97,16585.0,16,16585.0,16585.0,16585.0,16585.0,9,7,16585,64,16590,81
2016-09-13 11:06:00,11:06:07,11:06:07,28442,28442,16585.0,90,16590.0,78,16590.0,16590.0,16590.0,16590.0,3,3,16585,91,16590,71
2016-09-13 11:07:00,11:07:05,11:07:05,28469,28469,16585.0,83,16590.0,66,16590.0,16590.0,16590.0,16590.0,3,3,16585,82,16590,63
2016-09-13 11:08:00,11:08:09,11:08:52,28487,28571,16585.0,84,16590.0,72,16590.0,16590.0,16590.0,16590.0,169,95,16585,67,16595,55
2016-09-13 11:09:00,11:09:18,11:09:18,28581,28581,16585.0,70,16590.0,17,16590.0,16590.0,16590.0,16590.0,1,1,16585,71,16590,15
2016-09-13 11:10:00,11:10:06,11:10:58,28596,28651,16585.0,72,16590.0,21,16590.0,16590.0,16585.0,16585.0,72,-60,16585,23,16590,40
2016-09-13 11:11:00,11:11:09,11:11:57,28657,28694,16585.0,28,16590.0,40,16585.0,16585.0,16585.0,16585.0,32,0,16580,62,16590,41
2016-09-13 11:12:00,11:12:04,11:12:48,28705,28759,16580.0,62,16585.0,4,16585.0,16585.0,16580.0,16580.0,53,-45,16575,37,16580,20
2016-09-13 11:13:00,11:13:04,11:13:24,28771,28835,16575.0,37,16580.0,27,16580.0,16580.0,16580.0,16580.0,65,55,16575,93,16580,6
2016-09-13 11:14:00,11:14:09,11:14:21,28867,28905,16575.0,96,16580.0,20,16580.0,16580.0,16580.0,16580.0,27,15,16575,94,16585,53
2016-09-13 11:15:00,11:15:00,11:15:00,0,0,0.0,0,0.0,0,16580.0,16580.0,16580.0,16580.0,0,0,0,0,0,0
2016-09-13 11:16:00,11:16:08,11:16:35,28945,28963,16575.0,98,16580.0,11,16580.0,16580.0,16580.0,16580.0,18,17,16580,23,16585,35
2016-09-13 11:17:00,11:17:11,11:17:30,28991,29039,16580.0,11,16585.0,37,16580.0,16580.0,16580.0,16580.0,29,-29,16575,95,16585,42
2016-09-13 11:18:00,11:18:13,11:18:28,29062,29089,16580.0,18,16585.0,46,16580.0,16585.0,16580.0,16585.0,26,-8,16580,26,16585,44
2016-09-13 11:19:00,11:19:18,11:19:18,29106,29128,16580.0,40,16585.0,40,16585.0,16585.0,16585.0,16585.0,46,46,16580,38,16585,4
2016-09-13 11:20:00,11:20:00,11:20:00,0,0,0.0,0,0.0,0,16585.0,16585.0,16585.0,16585.0,0,0,0,0,0,0
2016-09-13 11:21:00,11:21:09,11:21:47,29182,29235,16580.0,37,16585.0,36,16585.0,16585.0,16580.0,16580.0,61,-45,16580,16,16585,47
2016-09-13 11:22:00,11:22:00,11:22:00,0,0,0.0,0,0.0,0,16580.0,16580.0,16580.0,16580.0,0,0,0,0,0,0
2016-09-13 11:23:00,11:23:09,11:23:51,29278,29371,16580.0,40,16585.0,53,16585.0,16585.0,16580.0,16585.0,104,44,16580,46,16585,51
2016-09-13 11:24:00,11:24:00,11:24:04,29376,29391,16575.0,90,16580.0,3,16580.0,16585.0,16580.0,16580.0,15,13,16580,39,16585,43
2016-09-13 11:25:00,11:25:07,11:25:25,29423,29445,16580.0,51,16585.0,30,16585.0,16585.0,16580.0,16580.0,20,-5,16575,89,16585,45
2016-09-13 11:26:00,11:26:07,11:26:58,29468,29584,16580.0,26,16585.0,36,16585.0,16590.0,16585.0,16590.0,173,133,16585,31,16590,25
2016-09-13 11:27:00,11:27:12,11:27:44,29594,29658,16585.0,32,16590.0,16,16590.0,16590.0,16585.0,16585.0,55,31,16580,41,16590,65
2016-09-13 11:28:00,11:28:00,11:28:43,29670,29729,16580.0,25,16585.0,51,16580.0,16585.0,16580.0,16585.0,94,42,16580,46,16585,7
2016-09-13 11:29:00,11:29:31,11:29:56,29747,29835,16580.0,45,16585.0,33,16580.0,16585.0,16580.0,16585.0,106,-26,16580,37,16585,32
2016-09-13 11:30:00,11:30:00,11:30:43,29841,29966,16580.0,33,16585.0,33,16580.0,16580.0,16575.0,16580.0,72,-52,16575,77,16580,33
2016-09-13 11:31:00,11:31:04,11:31:59,29996,30172,16575.0,80,16580.0,37,16580.0,16585.0,16580.0,16580.0,187,87,16580,25,16585,38
2016-09-13 11:32:00,11:32:00,11:32:55,30173,30469,16580.0,32,16585.0,47,16585.0,16605.0,16585.0,16605.0,532,276,16600,81,16605,57
2016-09-13 11:33:00,11:33:13,11:33:57,30490,30745,16600.0,80,16605.0,57,16605.0,16605.0,16595.0,16600.0,390,-83,16595,45,16600,6
2016-09-13 11:34:00,11:34:06,11:34:27,30758,30780,16595.0,43,16600.0,38,16600.0,16600.0,16595.0,16595.0,7,-5,16590,42,16595,53
2016-09-13 11:35:00,11:35:18,11:35:48,30812,30878,16590.0,35,16595.0,50,16590.0,16595.0,16590.0,16595.0,76,24,16590,68,16595,14
2016-09-13 11:36:00,11:36:06,11:36:58,30901,30961,16590.0,50,16595.0,51,16590.0,16590.0,16590.0,16590.0,47,-17,16590,39,16595,39
2016-09-13 11:37:00,11:37:19,11:37:54,30980,31063,16590.0,41,16595.0,44,16590.0,16590.0,16590.0,16590.0,99,-13,16585,51,16590,11
2016-09-13 11:38:00,11:38:00,11:38:51,31069,31142,16585.0,52,16590.0,9,16590.0,16590.0,16590.0,16590.0,81,49,16585,58,16595,52
2016-09-13 11:39:00,11:39:02,11:39:52,31152,31253,16585.0,58,16595.0,53,16590.0,16595.0,16590.0,16595.0,89,-3,16595,6,16600,54
2016-09-13 11:40:00,11:40:28,11:40:48,31277,31335,16595.0,6,16600.0,62,16595.0,16595.0,16585.0,16585.0,77,-75,16580,25,16585,8
2016-09-13 11:41:00,11:41:00,11:41:53,31348,31473,16580.0,39,16585.0,37,16585.0,16590.0,16585.0,16590.0,117,71,16590,28,16595,58
2016-09-13 11:42:00,11:42:05,11:42:55,31487,31565,16590.0,34,16595.0,57,16590.0,16590.0,16590.0,16590.0,54,-54,16590,20,16595,52
2016-09-13 11:43:00,11:43:00,11:43:00,31570,31570,16590.0,33,16595.0,52,16595.0,16595.0,16595.0,16595.0,2,2,16590,28,16595,55
2016-09-13 11:44:00,11:44:04,11:44:55,31606,31671,16590.0,38,16595.0,52,16595.0,16600.0,16595.0,16600.0,49,47,16595,33,16600,53
2016-09-13 11:45:00,11:45:03,11:45:54,31685,31806,16595.0,28,16600.0,56,16600.0,16600.0,16590.0,16590.0,125,-36,16590,48,16595,28
2016-09-13 11:46:00,11:46:43,11:46:43,31841,31841,16590.0,29,16595.0,47,16590.0,16590.0,16590.0,16590.0,1,-1,16590,21,16595,49
2016-09-13 11:47:00,11:47:02,11:47:02,31848,31849,16590.0,25,16595.0,50,16595.0,16595.0,16595.0,16595.0,3,3,16590,21,16595,48
2016-09-13 11:48:00,11:48:06,11:48:49,31887,31960,16590.0,54,16595.0,37,16595.0,16595.0,16595.0,16595.0,72,28,16590,56,16595,9
2016-09-13 11:49:00,11:49:04,11:49:58,31974,32016,16590.0,51,16595.0,9,16595.0,16595.0,16590.0,16595.0,10,8,16590,51,16595,9
2016-09-13 11:50:00,11:50:00,11:50:45,32022,32107,16590.0,48,16595.0,11,16595.0,16595.0,16595.0,16595.0,54,34,16590,55,16600,49
2016-09-13 11:51:00,11:51:10,11:51:59,32131,32250,16590.0,45,16595.0,24,16590.0,16590.0,16580.0,16580.0,155,-63,16575,78,16580,42
2016-09-13 11:52:00,11:52:10,11:52:36,32267,32360,16575.0,86,16580.0,35,16580.0,16580.0,16580.0,16580.0,136,-8,16575,83,16580,20
2016-09-13 11:53:00,11:53:00,11:53:49,32382,32505,16575.0,67,16580.0,62,16580.0,16585.0,16580.0,16585.0,125,113,16580,78,16585,61
2016-09-13 11:54:00,11:54:06,11:54:39,32528,32639,16580.0,67,16585.0,67,16580.0,16580.0,16580.0,16580.0,165,-19,16575,87,16580,1
2016-09-13 11:55:00,11:55:00,11:55:21,32654,32695,16575.0,84,16580.0,11,16580.0,16580.0,16580.0,16580.0,27,13,16575,81,16580,4
2016-09-13 11:56:00,11:56:20,11:56:20,32760,32762,16575.0,84,16580.0,35,16580.0,16580.0,16580.0,16580.0,5,5,16575,86,16580,30
2016-09-13 11:57:00,11:57:00,11:57:59,32786,33213,16575.0,68,16580.0,68,16575.0,16580.0,16545.0,16545.0,708,-338,16545,19,16550,51
2016-09-13 11:58:00,11:58:00,11:58:52,33216,33480,16545.0,19,16550.0,51,16550.0,16550.0,16540.0,16550.0,342,206,16545,51,16550,5
2016-09-13 11:59:00,11:59:01,11:59:47,33486,33619,16545.0,50,16550.0,31,16550.0,16550.0,16545.0,16545.0,119,-53,16540,77,16545,5
2016-09-13 12:00:00,12:00:00,12:00:49,33645,33816,16540.0,78,16545.0,5,16545.0,16550.0,16545.0,16550.0,165,52,16545,45,16550,11
2016-09-13 12:01:00,12:01:16,12:01:51,33835,33980,16545.0,51,16550.0,25,16550.0,16550.0,16540.0,16540.0,194,-136,16540,28,16545,88
2016-09-13 12:02:00,12:02:00,12:02:55,34001,34275,16540.0,54,16545.0,64,16545.0,16545.0,16525.0,16530.0,467,-399,16525,55,16530,4
2016-09-13 12:03:00,12:03:00,12:03:52,34290,34338,16525.0,46,16530.0,51,16530.0,16530.0,16525.0,16525.0,9,5,16525,71,16530,38
2016-09-13 12:04:00,12:04:00,12:04:54,34345,34531,16525.0,74,16530.0,34,16530.0,16540.0,16530.0,16540.0,275,149,16535,53,16540,41
2016-09-13 12:05:00,12:05:01,12:05:12,34540,34598,16535.0,55,16540.0,36,16540.0,16545.0,16540.0,16545.0,99,97,16545,34,16550,85
2016-09-13 12:06:00,12:06:06,12:06:56,34668,34784,16545.0,54,16550.0,108,16550.0,16550.0,16545.0,16545.0,72,-8,16545,35,16550,90
2016-09-13 12:07:00,12:07:07,12:07:55,34796,34866,16545.0,29,16550.0,96,16545.0,16550.0,16545.0,16545.0,107,-77,16545,43,16550,80
2016-09-13 12:08:00,12:08:05,12:08:58,34878,34971,16545.0,45,16550.0,81,16545.0,16545.0,16545.0,16545.0,81,-81,16545,8,16550,89
2016-09-13 12:09:00,12:09:03,12:09:37,34977,35188,16545.0,14,16550.0,89,16545.0,16550.0,16545.0,16550.0,334,-8,16550,2,16555,62
2016-09-13 12:10:00,12:10:24,12:10:45,35235,35307,16550.0,43,16555.0,55,16550.0,16555.0,16550.0,16555.0,93,53,16550,63,16555,2
2016-09-13 12:11:00,12:11:00,12:11:49,35328,35481,16555.0,36,16560.0,50,16560.0,16560.0,16555.0,16560.0,135,101,16560,9,16565,72
2016-09-13 12:12:00,12:12:43,12:12:59,35560,35648,16560.0,59,16565.0,54,16560.0,16570.0,16560.0,16570.0,142,111,16565,60,16570,32
2016-09-13 12:13:00,12:13:00,12:13:54,35649,35763,16565.0,59,16570.0,28,16570.0,16570.0,16560.0,16560.0,98,-84,16560,9,16565,63
2016-09-13 12:14:00,12:14:12,12:14:47,35788,35825,16560.0,34,16565.0,55,16560.0,16565.0,16560.0,16560.0,16,-12,16560,49,16565,55
2016-09-13 12:15:00,12:15:01,12:15:22,35845,35924,16560.0,63,16565.0,52,16565.0,16570.0,16565.0,16570.0,84,84,16565,79,16570,6
2016-09-13 12:16:00,12:16:07,12:16:48,35977,36060,16565.0,70,16570.0,38,16565.0,16565.0,16565.0,16565.0,107,-19,16560,59,16565,25
2016-09-13 12:17:00,12:17:11,12:17:46,36082,36130,16560.0,39,16565.0,56,16560.0,16560.0,16560.0,16560.0,48,-48,16560,15,16565,61
2016-09-13 12:18:00,12:18:03,12:18:59,36148,36315,16560.0,52,16565.0,36,16565.0,16570.0,16565.0,16570.0,211,91,16565,72,16575,79
2016-09-13 12:19:00,12:19:10,12:19:57,36330,36439,16565.0,74,16570.0,11,16570.0,16570.0,16565.0,16570.0,86,30,16570,2,16575,69
2016-09-13 12:20:00,12:20:11,12:20:43,36457,36564,16570.0,13,16575.0,71,16570.0,16570.0,16570.0,16570.0,79,-16,16565,71,16575,76
2016-09-13 12:21:00,12:21:02,12:21:58,36587,36716,16565.0,61,16570.0,42,16565.0,16575.0,16565.0,16575.0,159,21,16570,49,16575,10
2016-09-13 12:22:00,12:22:00,12:22:56,36719,36826,16570.0,49,16575.0,10,16575.0,16580.0,16575.0,16575.0,74,27,16570,53,16580,69
2016-09-13 12:23:00,12:23:16,12:23:57,36839,36907,16570.0,56,16575.0,15,16575.0,16575.0,16575.0,16575.0,28,2,16575,28,16580,25
2016-09-13 12:24:00,12:24:03,12:24:48,36919,37100,16575.0,45,16580.0,30,16580.0,16580.0,16580.0,16580.0,188,-140,16580,8,16585,54
2016-09-13 12:25:00,12:25:00,12:25:55,37119,37293,16580.0,35,16585.0,39,16585.0,16590.0,16580.0,16580.0,150,-30,16580,6,16585,56
2016-09-13 12:26:00,12:26:37,12:26:47,37329,37353,16580.0,39,16585.0,35,16585.0,16585.0,16585.0,16585.0,32,32,16585,6,16590,52
2016-09-13 12:27:00,12:27:06,12:27:10,37375,37399,16580.0,47,16585.0,45,16580.0,16580.0,16580.0,16580.0,33,-27,16580,36,16585,45
2016-09-13 12:28:00,12:28:47,12:28:52,37440,37485,16580.0,37,16585.0,49,16580.0,16580.0,16580.0,16580.0,67,-51,16575,50,16580,4
2016-09-13 12:29:00,12:29:11,12:29:58,37495,37536,16575.0,52,16580.0,19,16580.0,16585.0,16580.0,16585.0,30,-12,16580,5,16585,40
2016-09-13 12:30:00,12:30:00,12:30:00,0,0,0.0,0,0.0,0,16585.0,16585.0,16585.0,16585.0,0,0,0,0,0,0
2016-09-13 12:31:00,12:31:09,12:31:15,37595,37603,16580.0,39,16585.0,23,16585.0,16585.0,16580.0,16580.0,4,2,16580,31,16585,28
2016-09-13 12:32:00,12:32:09,12:32:54,37631,37731,16580.0,25,16585.0,40,16585.0,16585.0,16580.0,16580.0,79,3,16575,59,16580,12
2016-09-13 12:33:00,12:33:13,12:33:58,37742,37874,16575.0,56,16580.0,33,16580.0,16580.0,16570.0,16570.0,183,-85,16570,8,16575,49
2016-09-13 12:34:00,12:34:05,12:34:47,37883,38099,16570.0,13,16575.0,47,16570.0,16580.0,16570.0,16580.0,356,265,16580,34,16585,40
2016-09-13 12:35:00,12:35:12,12:35:12,38127,38127,16580.0,30,16585.0,50,16580.0,16580.0,16580.0,16580.0,1,-1,16580,29,16585,52
2016-09-13 12:36:00,12:36:02,12:36:42,38152,38195,16580.0,97,16585.0,25,16585.0,16585.0,16580.0,16580.0,27,-7,16580,55,16585,129
2016-09-13 12:37:00,12:37:00,12:37:51,38207,38301,16580.0,70,16585.0,119,16580.0,16585.0,16580.0,16585.0,160,128,16585,15,16590,54
2016-09-13 12:38:00,12:38:16,12:38:54,38325,38457,16585.0,40,16590.0,41,16590.0,16590.0,16585.0,16590.0,161,75,16585,75,16595,144
2016-09-13 12:39:00,12:39:00,12:39:35,38465,38597,16590.0,15,16595.0,144,16595.0,16595.0,16590.0,16590.0,141,-15,16585,89,16590,18
2016-09-13 12:40:00,12:40:03,12:40:06,38616,38624,16585.0,99,16590.0,23,16590.0,16590.0,16590.0,16590.0,9,9,16585,99,16590,17
2016-09-13 12:41:00,12:41:08,12:41:08,38653,38656,16585.0,107,16590.0,21,16590.0,16590.0,16590.0,16590.0,4,4,16585,104,16590,16
2016-09-13 12:42:00,12:42:00,12:42:55,38679,38715,16585.0,99,16590.0,21,16590.0,16590.0,16585.0,16590.0,22,12,16585,103,16590,25
2016-09-13 12:43:00,12:43:09,12:43:59,38721,38734,16585.0,103,16590.0,28,16590.0,16590.0,16585.0,16590.0,5,3,16585,99,16590,27
2016-09-13 12:44:00,12:44:03,12:44:31,38737,38747,16585.0,99,16590.0,27,16590.0,16590.0,16590.0,16590.0,5,5,16585,101,16590,32
2016-09-13 12:45:00,12:45:05,12:45:37,38760,38791,16585.0,106,16590.0,32,16590.0,16590.0,16585.0,16590.0,24,12,16585,88,16590,35
2016-09-13 12:46:00,12:46:04,12:46:35,38805,39005,16585.0,89,16590.0,41,16590.0,16590.0,16585.0,16585.0,297,81,16580,62,16585,3
2016-09-13 12:47:00,12:47:14,12:47:55,39028,39153,16580.0,80,16585.0,23,16580.0,16580.0,16580.0,16580.0,168,-151,16580,23,16585,46
2016-09-13 12:48:00,12:48:00,12:48:00,0,0,0.0,0,0.0,0,16580.0,16580.0,16580.0,16580.0,0,0,0,0,0,0
2016-09-13 12:49:00,12:49:07,12:49:57,39186,39252,16580.0,46,16585.0,45,16585.0,16585.0,16585.0,16585.0,45,35,16585,39,16590,33
2016-09-13 12:50:00,12:50:13,12:50:59,39267,39409,16585.0,53,16590.0,27,16590.0,16600.0,16590.0,16600.0,317,231,16600,26,16605,49
2016-09-13 12:51:00,12:51:00,12:51:54,39410,39692,16595.0,60,16600.0,65,16600.0,16620.0,16600.0,16610.0,337,191,16610,54,16615,36
2016-09-13 12:52:00,12:52:23,12:52:55,39742,39873,16610.0,72,16615.0,14,16615.0,16615.0,16605.0,16610.0,159,59,16605,49,16610,8
2016-09-13 12:53:00,12:53:05,12:53:51,39891,40024,16605.0,33,16610.0,46,16610.0,16610.0,16605.0,16610.0,136,64,16605,37,16610,7
2016-09-13 12:54:00,12:54:11,12:54:56,40055,40134,16605.0,48,16610.0,13,16610.0,16610.0,16610.0,16610.0,77,19,16610,10,16615,57
2016-09-13 12:55:00,12:55:45,12:55:48,40175,40196,16610.0,20,16615.0,56,16610.0,16610.0,16610.0,16610.0,26,-23,16610,1,16615,53
2016-09-13 12:56:00,12:56:45,12:56:59,40249,40462,16610.0,41,16615.0,29,16615.0,16635.0,16615.0,16635.0,436,426,16630,59,16635,19
2016-09-13 12:57:00,12:57:16,12:57:58,40492,40723,16630.0,35,16635.0,80,16630.0,16630.0,16625.0,16625.0,336,137,16625,44,16630,30
2016-09-13 12:58:00,12:58:04,12:58:54,40737,40864,16625.0,88,16630.0,17,16630.0,16640.0,16630.0,16630.0,139,49,16630,76,16635,66
2016-09-13 12:59:00,12:59:00,12:59:59,40874,40931,16630.0,64,16635.0,72,16630.0,16630.0,16625.0,16630.0,66,-66,16625,49,16630,10
2016-09-13 13:00:00,13:00:00,13:00:50,40932,41042,16630.0,56,16635.0,76,16630.0,16630.0,16625.0,16630.0,100,26,16630,26,16635,72
2016-09-13 13:01:00,13:01:00,13:01:54,41060,41187,16630.0,26,16635.0,62,16630.0,16630.0,16620.0,16620.0,97,-97,16620,50,16625,35
2016-09-13 13:02:00,13:02:08,13:02:57,41202,41340,16620.0,60,16625.0,29,16625.0,16625.0,16620.0,16620.0,103,-55,16620,39,16625,45
2016-09-13 13:03:00,13:03:13,13:03:58,41356,41565,16620.0,30,16625.0,50,16620.0,16620.0,16615.0,16615.0,233,-40,16610,54,16615,18
2016-09-13 13:04:00,13:04:16,13:04:58,41581,41631,16610.0,46,16615.0,39,16610.0,16610.0,16610.0,16610.0,6,-6,16610,52,16615,30
2016-09-13 13:05:00,13:05:03,13:05:45,41639,41740,16610.0,56,16615.0,22,16610.0,16615.0,16610.0,16610.0,83,-9,16610,49,16615,12
2016-09-13 13:06:00,13:06:01,13:06:48,41750,41805,16610.0,34,16615.0,29,16610.0,16615.0,16610.0,16610.0,16,4,16610,39,16615,23
2016-09-13 13:07:00,13:07:01,13:07:51,41813,41867,16610.0,48,16615.0,22,16615.0,16615.0,16610.0,16610.0,11,-1,16610,25,16615,49
2016-09-13 13:08:00,13:08:07,13:08:54,41875,41981,16610.0,32,16615.0,52,16610.0,16615.0,16610.0,16615.0,112,104,16615,49,16620,45
2016-09-13 13:09:00,13:09:08,13:09:53,41995,42138,16615.0,55,16620.0,48,16620.0,16620.0,16610.0,16615.0,145,57,16610,44,16615,1
2016-09-13 13:10:00,13:10:05,13:10:55,42159,42331,16610.0,43,16615.0,33,16610.0,16610.0,16600.0,16600.0,157,-66,16600,39,16605,29
2016-09-13 13:11:00,13:11:00,13:11:58,42337,42527,16600.0,39,16605.0,30,16600.0,16600.0,16595.0,16600.0,144,-3,16595,78,16600,1
2016-09-13 13:12:00,13:12:01,13:12:54,42529,42623,16595.0,77,16600.0,1,16600.0,16600.0,16595.0,16595.0,84,-72,16595,50,16600,47
2016-09-13 13:13:00,13:13:01,13:13:48,42630,42679,16595.0,56,16600.0,42,16595.0,16595.0,16595.0,16595.0,11,-11,16595,122,16600,37
2016-09-13 13:14:00,13:14:04,13:14:51,42691,42800,16595.0,123,16600.0,37,16595.0,16600.0,16595.0,16600.0,125,29,16600,72,16605,54
2016-09-13 13:15:00,13:15:07,13:15:49,42811,42914,16600.0,76,16605.0,56,16600.0,16610.0,16600.0,16610.0,145,19,16605,45,16610,4
2016-09-13 13:16:00,13:16:00,13:16:46,42926,43072,16605.0,48,16610.0,19,16610.0,16615.0,16610.0,16610.0,157,87,16610,7,16615,61
2016-09-13 13:17:00,13:17:13,13:17:58,43096,43164,16610.0,59,16615.0,19,16610.0,16610.0,16605.0,16610.0,34,-14,16610,2,16615,74
2016-09-13 13:18:00,13:18:01,13:18:58,43173,43302,16610.0,11,16615.0,67,16610.0,16610.0,16605.0,16605.0,98,26,16600,57,16605,9
2016-09-13 13:19:00,13:19:19,13:19:41,43331,43433,16600.0,45,16605.0,34,16600.0,16600.0,16595.0,16600.0,108,32,16595,52,16600,8
2016-09-13 13:20:00,13:20:01,13:20:58,43454,43582,16595.0,39,16600.0,41,16595.0,16595.0,16595.0,16595.0,82,-34,16595,8,16600,71
2016-09-13 13:21:00,13:21:09,13:21:54,43601,43642,16595.0,13,16600.0,72,16595.0,16595.0,16595.0,16595.0,6,-6,16595,88,16600,67
2016-09-13 13:22:00,13:22:06,13:22:54,43651,43700,16595.0,92,16600.0,61,16600.0,16600.0,16595.0,16595.0,9,-3,16595,83,16600,65
2016-09-13 13:23:00,13:23:08,13:23:57,43715,43781,16595.0,92,16600.0,64,16600.0,16600.0,16595.0,16595.0,11,-1,16595,88,16600,51
2016-09-13 13:24:00,13:24:05,13:24:57,43797,43846,16595.0,81,16600.0,66,16600.0,16600.0,16595.0,16595.0,17,-7,16595,65,16600,60
2016-09-13 13:25:00,13:25:05,13:25:57,43852,43937,16595.0,68,16600.0,62,16600.0,16605.0,16595.0,16605.0,53,41,16605,13,16605,22
2016-09-13 13:26:00,13:26:04,13:26:57,43941,44065,16600.0,94,16605.0,29,16605.0,16610.0,16600.0,16605.0,110,-42,16600,79,16610,70
2016-09-13 13:27:00,13:27:17,13:27:48,44078,44122,16600.0,81,16605.0,18,16600.0,16605.0,16600.0,16605.0,37,2,16605,4,16610,63
2016-09-13 13:28:00,13:28:08,13:28:57,44146,44179,16605.0,46,16610.0,57,16605.0,16605.0,16605.0,16605.0,7,-7,16605,48,16610,47
2016-09-13 13:29:00,13:29:08,13:29:57,44194,44292,16605.0,59,16610.0,48,16610.0,16610.0,16605.0,16610.0,149,139,16610,40,16615,72
2016-09-13 13:30:00,13:30:00,13:30:57,44297,44409,16610.0,40,16615.0,75,16615.0,16615.0,16610.0,16610.0,81,-25,16610,54,16615,82
2016-09-13 13:31:00,13:31:06,13:31:57,44419,44521,16610.0,54,16615.0,81,16615.0,16615.0,16600.0,16605.0,147,-69,16605,14,16610,57
2016-09-13 13:32:00,13:32:04,13:32:57,44535,44621,16605.0,42,16610.0,54,16605.0,16610.0,16605.0,16605.0,36,-26,16605,29,16610,46
2016-09-13 13:33:00,13:33:17,13:33:59,44641,44756,16605.0,34,16610.0,49,16605.0,16610.0,16605.0,16610.0,83,37,16610,5,16615,124
2016-09-13 13:34:00,13:34:10,13:34:59,44770,44897,16610.0,31,16615.0,117,16615.0,16615.0,16610.0,16615.0,179,107,16615,60,16620,74
2016-09-13 13:35:00,13:35:00,13:35:57,44900,45024,16615.0,60,16620.0,74,16615.0,16615.0,16610.0,16610.0,86,-64,16610,19,16615,82
2016-09-13 13:36:00,13:36:17,13:36:57,45046,45112,16610.0,29,16615.0,82,16610.0,16615.0,16610.0,16610.0,34,-32,16610,49,16615,67
2016-09-13 13:37:00,13:37:17,13:37:57,45139,45188,16610.0,63,16615.0,57,16610.0,16615.0,16610.0,16610.0,10,-4,16610,43,16615,61
2016-09-13 13:38:00,13:38:05,13:38:57,45195,45283,16610.0,47,16615.0,61,16610.0,16615.0,16610.0,16610.0,56,-46,16610,31,16615,62
2016-09-13 13:39:00,13:39:09,13:39:57,45297,45355,16610.0,35,16615.0,67,16610.0,16615.0,16610.0,16610.0,19,-13,16610,27,16615,73
2016-09-13 13:40:00,13:40:05,13:40:49,45366,45423,16610.0,20,16615.0,83,16610.0,16615.0,16610.0,16615.0,25,-5,16610,37,16615,61
2016-09-13 13:41:00,13:41:00,13:41:44,45431,45519,16610.0,32,16615.0,70,16615.0,16615.0,16605.0,16605.0,75,-59,16600,80,16605,52
2016-09-13 13:42:00,13:42:06,13:42:59,45551,45706,16600.0,67,16605.0,70,16605.0,16605.0,16600.0,16605.0,153,-73,16600,41,16605,47
2016-09-13 13:43:00,13:43:12,13:43:54,45730,45869,16600.0,39,16605.0,57,16600.0,16605.0,16600.0,16600.0,256,-37,16600,35,16605,96
2016-09-13 13:44:00,13:44:00,13:44:58,45880,46087,16600.0,76,16605.0,76,16605.0,16610.0,16600.0,16610.0,307,83,16605,105,16615,87
2016-09-13 13:45:00,13:45:00,13:45:24,46093,46128,16610.0,7,16615.0,81,16610.0,16615.0,16610.0,16615.0,19,-13,16610,63,16615,108
2016-09-13 13:46:00,13:46:02,13:46:57,46148,46416,16610.0,85,16615.0,92,16615.0,16625.0,16615.0,16625.0,426,201,16625,8,16630,112
2016-09-13 13:47:00,13:47:02,13:47:58,46428,46632,16625.0,54,16630.0,102,16625.0,16625.0,16620.0,16620.0,273,-37,16615,34,16620,58
2016-09-13 13:48:00,13:48:02,13:48:57,46637,46826,16615.0,28,16620.0,57,16615.0,16615.0,16610.0,16610.0,247,-9,16610,17,16615,49
2016-09-13 13:49:00,13:49:26,13:49:52,46845,46937,16610.0,29,16615.0,49,16615.0,16620.0,16615.0,16620.0,118,118,16620,93,16625,77
2016-09-13 13:50:00,13:50:16,13:50:45,46970,47107,16620.0,47,16625.0,80,16620.0,16620.0,16610.0,16610.0,191,-157,16610,1,16615,77
2016-09-13 13:51:00,13:51:03,13:51:41,47128,47237,16610.0,39,16615.0,89,16610.0,16610.0,16605.0,16605.0,125,-65,16605,52,16610,61
2016-09-13 13:52:00,13:52:07,13:52:56,47271,47358,16605.0,36,16610.0,78,16610.0,16610.0,16600.0,16600.0,38,-34,16600,47,16605,51
2016-09-13 13:53:00,13:53:01,13:53:58,47369,47525,16600.0,37,16605.0,63,16600.0,16600.0,16595.0,16595.0,211,-183,16595,22,16600,126
2016-09-13 13:54:00,13:54:03,13:54:30,47530,47617,16595.0,20,16600.0,124,16595.0,16600.0,16595.0,16595.0,86,-44,16590,55,16600,123
2016-09-13 13:55:00,13:55:00,13:55:36,47658,47782,16590.0,48,16595.0,57,16595.0,16595.0,16590.0,16590.0,112,-64,16590,46,16595,53
2016-09-13 13:56:00,13:56:02,13:56:56,47816,47883,16590.0,50,16595.0,71,16595.0,16595.0,16590.0,16590.0,15,9,16590,41,16595,87
2016-09-13 13:57:00,13:57:04,13:57:55,47896,48112,16590.0,61,16595.0,68,16595.0,16605.0,16590.0,16605.0,310,152,16600,31,16605,47
2016-09-13 13:58:00,13:58:03,13:58:51,48126,48266,16600.0,36,16605.0,59,16600.0,16600.0,16600.0,16600.0,142,-98,16600,22,16605,61
2016-09-13 13:59:00,13:59:00,13:59:59,48286,48623,16600.0,45,16605.0,66,16605.0,16610.0,16600.0,16600.0,410,-13,16595,41,16600,30
2016-09-13 14:00:00,14:00:00,14:00:55,48624,49057,16595.0,97,16600.0,14,16600.0,16605.0,16585.0,16585.0,657,-101,16580,126,16585,22
2016-09-13 14:01:00,14:01:00,14:01:52,49070,49255,16580.0,108,16585.0,69,16580.0,16590.0,16580.0,16590.0,259,-7,16585,84,16590,74
2016-09-13 14:02:00,14:02:00,14:02:59,49269,49400,16585.0,98,16590.0,89,16585.0,16590.0,16585.0,16585.0,114,-89,16580,83,16585,44
2016-09-13 14:03:00,14:03:00,14:03:58,49403,49613,16580.0,83,16585.0,44,16580.0,16585.0,16580.0,16585.0,247,-25,16585,5,16590,87
2016-09-13 14:04:00,14:04:00,14:04:56,49618,49752,16585.0,7,16590.0,81,16585.0,16585.0,16580.0,16585.0,143,-13,16585,4,16590,86
2016-09-13 14:05:00,14:05:00,14:05:58,49760,49875,16585.0,38,16590.0,86,16585.0,16590.0,16585.0,16585.0,147,-19,16585,24,16590,108
2016-09-13 14:06:00,14:06:18,14:06:59,49895,49982,16585.0,51,16590.0,109,16585.0,16590.0,16585.0,16585.0,72,-18,16585,47,16590,112
2016-09-13 14:07:00,14:07:01,14:07:53,49987,50115,16585.0,48,16590.0,108,16585.0,16590.0,16585.0,16585.0,155,-123,16585,7,16590,133
2016-09-13 14:08:00,14:08:23,14:08:33,50137,50190,16585.0,43,16590.0,133,16585.0,16590.0,16585.0,16590.0,119,115,16590,35,16595,179
