,ST,ET,sidx,eidx,bB,bBS,bA,bAS,O,H,L,C,V,OF,eB,eBS,eA,eAS
2016-06-02 08:00:00,08:00:00,08:00:55,1468,2110,16820.0,22,16825.0,10,16820.0,16830.0,16810.0,16820.0,938,-21,16815,7,16820,14
2016-06-02 08:01:00,08:01:00,08:01:59,2111,2574,16820.0,8,16825.0,27,16820.0,16820.0,16800.0,16805.0,558,-73,16805,5,16805,17
2016-06-02 08:02:00,08:02:00,08:02:59,2576,2974,16800.0,17,16805.0,17,16805.0,16810.0,16795.0,16810.0,450,-92,16805,15,16815,18
2016-06-02 08:03:00,08:03:00,08:03:51,2977,3243,16805.0,15,16815.0,18,16810.0,16820.0,16805.0,16810.0,330,28,16805,7,16810,11
2016-06-02 08:04:00,08:04:06,08:04:59,3264,3544,16805.0,20,16810.0,15,16805.0,16810.0,16785.0,16795.0,336,-116,16790,16,16795,14
2016-06-02 08:05:00,08:05:00,08:05:59,3547,3993,16790.0,16,16795.0,14,16790.0,16790.0,16760.0,16760.0,513,95,16760,14,16765,21
2016-06-02 08:06:00,08:06:00,08:06:59,3998,4425,16760.0,17,16765.0,13,16765.0,16790.0,16765.0,16780.0,489,109,16775,25,16780,12
2016-06-02 08:07:00,08:07:01,08:07:59,4432,4759,16775.0,13,16780.0,33,16775.0,16790.0,16770.0,16780.0,283,73,16775,35,16780,12
2016-06-02 08:08:00,08:08:00,08:08:51,4762,4951,16775.0,35,16780.0,12,16780.0,16785.0,16775.0,16780.0,130,46,16780,1,16785,25
2016-06-02 08:09:00,08:09:06,08:09:56,4970,5112,16780.0,6,16785.0,31,16780.0,16780.0,16770.0,16770.0,124,-59,16770,5,16775,22
2016-06-02 08:10:00,08:10:03,08:10:59,5126,5582,16770.0,3,16775.0,28,16770.0,16770.0,16750.0,16760.0,473,36,16755,28,16760,16
2016-06-02 08:11:00,08:11:02,08:11:58,5588,5878,16755.0,25,16760.0,22,16760.0,16770.0,16755.0,16770.0,231,189,16765,24,16770,5
2016-06-02 08:12:00,08:12:00,08:12:50,5881,6089,16765.0,24,16770.0,5,16765.0,16785.0,16765.0,16785.0,156,52,16780,21,16785,13
2016-06-02 08:13:00,08:13:03,08:13:53,6106,6310,16780.0,33,16785.0,17,16785.0,16795.0,16785.0,16785.0,215,119,16785,23,16790,21
2016-06-02 08:14:00,08:14:08,08:14:56,6324,6441,16785.0,21,16790.0,27,16785.0,16785.0,16780.0,16785.0,87,-55,16780,25,16785,14
2016-06-02 08:15:00,08:15:00,08:15:58,6451,6689,16780.0,13,16785.0,26,16780.0,16780.0,16765.0,16770.0,194,-68,16770,6,16775,35
2016-06-02 08:16:00,08:16:07,08:16:57,6702,6913,16770.0,28,16775.0,22,16770.0,16775.0,16770.0,16770.0,188,-118,16770,14,16775,26
2016-06-02 08:17:00,08:17:04,08:17:59,6924,7008,16770.0,21,16775.0,23,16770.0,16770.0,16770.0,16770.0,26,-26,16770,35,16775,30
2016-06-02 08:18:00,08:18:01,08:18:59,7015,7297,16770.0,41,16775.0,25,16775.0,16780.0,16760.0,16760.0,340,-176,16755,59,16760,3
2016-06-02 08:19:00,08:19:00,08:19:59,7298,8194,16760.0,88,16765.0,23,16760.0,16760.0,16720.0,16730.0,1411,-450,16725,26,16730,24
2016-06-02 08:20:00,08:20:02,08:20:55,8204,8573,16725.0,23,16730.0,34,16725.0,16730.0,16710.0,16725.0,444,-38,16725,5,16730,34
2016-06-02 08:21:00,08:21:16,08:21:59,8599,8790,16725.0,24,16730.0,44,16725.0,16730.0,16715.0,16720.0,211,-14,16715,15,16720,28
2016-06-02 08:22:00,08:22:00,08:22:59,8793,9088,16715.0,15,16720.0,28,16715.0,16735.0,16710.0,16735.0,259,105,16730,31,16735,10
2016-06-02 08:23:00,08:23:00,08:23:59,9089,9353,16730.0,32,16735.0,23,16735.0,16745.0,16735.0,16735.0,260,86,16730,37,16735,19
2016-06-02 08:24:00,08:24:02,08:24:31,9363,9495,16730.0,20,16735.0,25,16735.0,16735.0,16725.0,16730.0,99,13,16725,33,16730,16
2016-06-02 08:25:00,08:25:04,08:25:59,9543,9779,16725.0,18,16730.0,38,16730.0,16735.0,16720.0,16720.0,181,54,16720,23,16725,18
2016-06-02 08:26:00,08:26:00,08:26:53,9780,9915,16720.0,31,16725.0,9,16720.0,16725.0,16715.0,16720.0,71,-27,16715,25,16720,36
2016-06-02 08:27:00,08:27:06,08:27:57,9939,10128,16715.0,32,16720.0,32,16715.0,16725.0,16715.0,16720.0,163,20,16720,15,16725,33
2016-06-02 08:28:00,08:28:05,08:28:49,10143,10384,16720.0,18,16725.0,35,16720.0,16725.0,16715.0,16715.0,211,53,16715,40,16720,10
2016-06-02 08:29:00,08:29:01,08:29:52,10400,10581,16715.0,32,16720.0,26,16715.0,16725.0,16715.0,16725.0,154,83,16720,32,16725,12
2016-06-02 08:30:00,08:30:07,08:30:41,10605,10723,16720.0,32,16725.0,31,16725.0,16725.0,16715.0,16720.0,84,-2,16720,8,16725,20
2016-06-02 08:31:00,08:31:00,08:31:54,10760,11197,16720.0,18,16725.0,15,16725.0,16745.0,16725.0,16745.0,493,172,16740,31,16745,19
2016-06-02 08:32:00,08:32:09,08:32:40,11216,11342,16740.0,25,16745.0,25,16745.0,16745.0,16740.0,16740.0,98,-10,16735,32,16740,13
2016-06-02 08:33:00,08:33:02,08:33:55,11362,11559,16735.0,29,16740.0,11,16740.0,16755.0,16740.0,16745.0,222,18,16740,49,16745,8
2016-06-02 08:34:00,08:34:01,08:34:58,11565,11799,16740.0,49,16745.0,14,16740.0,16760.0,16740.0,16760.0,199,143,16755,49,16760,14
2016-06-02 08:35:00,08:35:03,08:35:55,11813,11932,16755.0,40,16760.0,26,16755.0,16755.0,16750.0,16750.0,101,-63,16745,24,16750,31
2016-06-02 08:36:00,08:36:05,08:36:56,11940,12105,16745.0,19,16750.0,37,16745.0,16750.0,16745.0,16745.0,124,30,16740,17,16745,23
2016-06-02 08:37:00,08:37:10,08:37:57,12113,12391,16740.0,14,16745.0,29,16740.0,16740.0,16730.0,16730.0,354,-221,16730,8,16735,51
2016-06-02 08:38:00,08:38:00,08:38:58,12397,12976,16730.0,14,16735.0,51,16730.0,16735.0,16690.0,16695.0,984,-613,16695,36,16700,32
2016-06-02 08:39:00,08:39:00,08:39:59,12987,13436,16695.0,36,16700.0,35,16695.0,16710.0,16695.0,16705.0,562,73,16705,18,16710,23
2016-06-02 08:40:00,08:40:00,08:40:57,13440,13781,16705.0,17,16710.0,23,16705.0,16705.0,16695.0,16695.0,427,-148,16695,3,16695,1
2016-06-02 08:41:00,08:41:04,08:41:57,13783,14104,16695.0,3,16700.0,31,16695.0,16695.0,16675.0,16675.0,464,-231,16675,10,16680,23
2016-06-02 08:42:00,08:42:07,08:42:57,14124,14382,16675.0,15,16680.0,34,16675.0,16690.0,16675.0,16680.0,297,-43,16680,22,16685,15
2016-06-02 08:43:00,08:43:01,08:43:57,14391,14588,16680.0,20,16685.0,28,16680.0,16695.0,16680.0,16695.0,182,35,16690,12,16695,29
2016-06-02 08:44:00,08:44:00,08:44:52,14595,14808,16690.0,22,16695.0,20,16690.0,16695.0,16685.0,16690.0,275,3,16690,10,16695,49
2016-06-02 08:45:00,08:45:02,08:45:57,14822,15238,16690.0,28,16695.0,54,16690.0,16690.0,16665.0,16670.0,579,-208,16670,24,16675,51
2016-06-02 08:46:00,08:46:01,08:46:59,15242,15545,16670.0,24,16675.0,53,16670.0,16690.0,16665.0,16685.0,407,255,16685,10,16690,25
2016-06-02 08:47:00,08:47:01,08:47:59,15553,15674,16685.0,12,16690.0,71,16685.0,16685.0,16680.0,16685.0,89,-23,16680,25,16685,19
2016-06-02 08:48:00,08:48:05,08:48:58,15687,15877,16680.0,31,16685.0,20,16685.0,16690.0,16680.0,16685.0,192,43,16680,42,16685,3
2016-06-02 08:49:00,08:49:00,08:49:43,15881,15934,16680.0,42,16685.0,4,16685.0,16685.0,16680.0,16680.0,19,-1,16680,27,16685,56
2016-06-02 08:50:00,08:50:01,08:50:53,15944,16092,16680.0,29,16685.0,77,16680.0,16685.0,16670.0,16670.0,138,-103,16670,17,16675,38
2016-06-02 08:51:00,08:51:08,08:51:55,16115,16311,16670.0,18,16675.0,40,16670.0,16680.0,16665.0,16670.0,220,4,16665,20,16670,35
2016-06-02 08:52:00,08:52:02,08:52:58,16329,16854,16665.0,9,16670.0,44,16665.0,16665.0,16640.0,16655.0,836,-290,16655,24,16660,46
2016-06-02 08:53:00,08:53:00,08:53:59,16859,17055,16655.0,23,16660.0,47,16655.0,16670.0,16655.0,16660.0,255,105,16660,41,16665,66
2016-06-02 08:54:00,08:54:00,08:54:53,17057,17223,16660.0,41,16665.0,65,16660.0,16665.0,16660.0,16665.0,217,-21,16660,29,16665,20
2016-06-02 08:55:00,08:55:00,08:55:47,17233,17448,16660.0,19,16665.0,28,16660.0,16665.0,16655.0,16655.0,245,-122,16655,15,16660,35
2016-06-02 08:56:00,08:56:09,08:56:59,17466,17922,16655.0,22,16660.0,37,16655.0,16655.0,16630.0,16630.0,656,-413,16630,37,16635,36
2016-06-02 08:57:00,08:57:01,08:57:59,17926,18262,16630.0,37,16635.0,37,16630.0,16645.0,16630.0,16640.0,404,158,16635,33,16640,27
2016-06-02 08:58:00,08:58:00,08:58:59,18265,18524,16635.0,33,16640.0,27,16640.0,16655.0,16635.0,16655.0,320,234,16655,49,16660,24
2016-06-02 08:59:00,08:59:07,08:59:59,18538,18692,16655.0,49,16660.0,22,16655.0,16665.0,16655.0,16660.0,212,100,16660,33,16665,26
2016-06-02 09:00:00,09:00:09,09:00:56,18708,18897,16660.0,28,16665.0,32,16665.0,16665.0,16650.0,16650.0,186,-67,16650,5,16655,38
2016-06-02 09:01:00,09:01:07,09:01:59,18915,19193,16650.0,11,16655.0,63,16650.0,16655.0,16645.0,16645.0,293,-125,16645,8,16650,38
2016-06-02 09:02:00,09:02:00,09:02:58,19195,19395,16645.0,8,16650.0,37,16645.0,16655.0,16645.0,16655.0,222,9,16655,3,16660,91
2016-06-02 09:03:00,09:03:12,09:03:32,19408,19475,16655.0,9,16660.0,93,16655.0,16660.0,16655.0,16660.0,93,51,16655,32,16660,40
2016-06-02 09:04:00,09:04:01,09:04:55,19501,19589,16655.0,27,16660.0,55,16655.0,16660.0,16655.0,16660.0,94,50,16655,39,16660,48
2016-06-02 09:05:00,09:05:21,09:05:45,19607,19741,16655.0,29,16660.0,87,16655.0,16660.0,16650.0,16655.0,219,87,16655,40,16660,30
2016-06-02 09:06:00,09:06:34,09:06:49,19783,19823,16655.0,52,16660.0,40,16655.0,16660.0,16655.0,16660.0,37,-35,16655,47,16660,31
2016-06-02 09:07:00,09:07:01,09:07:58,19842,20147,16655.0,42,16660.0,33,16660.0,16675.0,16660.0,16670.0,313,76,16670,5,16675,46
2016-06-02 09:08:00,09:08:01,09:08:48,20152,20366,16670.0,15,16675.0,46,16670.0,16670.0,16665.0,16665.0,152,14,16665,7,16670,28
2016-06-02 09:09:00,09:09:04,09:09:55,20389,20681,16665.0,32,16670.0,23,16665.0,16685.0,16665.0,16680.0,301,104,16675,42,16680,12
2016-06-02 09:10:00,09:10:03,09:10:27,20694,20789,16675.0,21,16680.0,49,16675.0,16680.0,16675.0,16675.0,115,65,16670,33,16680,47
2016-06-02 09:11:00,09:11:15,09:11:50,20817,20900,16675.0,24,16680.0,44,16680.0,16685.0,16680.0,16685.0,61,51,16680,28,16685,29
2016-06-02 09:12:00,09:12:02,09:12:46,20919,21156,16680.0,46,16685.0,27,16685.0,16695.0,16685.0,16690.0,255,98,16685,31,16690,9
2016-06-02 09:13:00,09:13:06,09:13:42,21184,21245,16685.0,30,16690.0,31,16685.0,16690.0,16685.0,16685.0,43,17,16680,44,16685,9
2016-06-02 09:14:00,09:14:06,09:14:24,21261,21296,16680.0,42,16685.0,21,16680.0,16685.0,16680.0,16685.0,28,16,16685,19,16690,14
2016-06-02 09:15:00,09:15:00,09:15:59,21334,21613,16685.0,18,16690.0,32,16685.0,16695.0,16680.0,16685.0,335,19,16680,32,16685,36
2016-06-02 09:16:00,09:16:03,09:16:57,21623,21726,16680.0,34,16685.0,39,16680.0,16690.0,16680.0,16685.0,95,29,16680,37,16685,55
2016-06-02 09:17:00,09:17:10,09:17:51,21741,21778,16680.0,27,16685.0,67,16685.0,16685.0,16680.0,16680.0,18,2,16680,45,16685,54
2016-06-02 09:18:00,09:18:36,09:18:52,21807,21832,16680.0,32,16685.0,63,16680.0,16680.0,16680.0,16680.0,7,-7,16680,31,16685,64
2016-06-02 09:19:00,09:19:05,09:19:44,21840,21895,16680.0,30,16685.0,63,16680.0,16690.0,16680.0,16690.0,70,56,16685,27,16690,52
2016-06-02 09:20:00,09:20:11,09:20:52,21921,22123,16685.0,34,16690.0,57,16685.0,16690.0,16675.0,16675.0,218,-20,16675,35,16680,36
2016-06-02 09:21:00,09:21:04,09:21:59,22129,22322,16675.0,35,16680.0,34,16675.0,16680.0,16670.0,16670.0,222,-135,16665,35,16675,63
2016-06-02 09:22:00,09:22:01,09:22:57,22324,22467,16665.0,38,16675.0,63,16670.0,16675.0,16665.0,16675.0,120,82,16670,31,16675,15
2016-06-02 09:23:00,09:23:07,09:23:42,22481,22547,16670.0,30,16675.0,37,16675.0,16680.0,16670.0,16670.0,69,11,16670,30,16675,2
2016-06-02 09:24:00,09:24:01,09:24:59,22578,22715,16670.0,28,16675.0,29,16670.0,16675.0,16670.0,16675.0,111,-41,16675,5,16680,37
2016-06-02 09:25:00,09:25:00,09:25:58,22721,22878,16675.0,16,16680.0,41,16675.0,16675.0,16660.0,16665.0,103,-47,16660,35,16665,9
2016-06-02 09:26:00,09:26:08,09:26:53,22890,23023,16660.0,33,16665.0,17,16660.0,16670.0,16660.0,16670.0,104,-47,16670,17,16675,38
2016-06-02 09:27:00,09:27:29,09:27:56,23062,23150,16670.0,26,16675.0,33,16675.0,16685.0,16675.0,16685.0,105,29,16680,28,16685,18
2016-06-02 09:28:00,09:28:01,09:28:47,23153,23249,16680.0,28,16685.0,18,16685.0,16685.0,16680.0,16685.0,78,32,16680,30,16685,14
2016-06-02 09:29:00,09:29:03,09:29:47,23257,23365,16680.0,29,16685.0,17,16680.0,16695.0,16680.0,16690.0,73,-23,16690,13,16695,38
2016-06-02 09:30:00,09:30:00,09:30:58,23378,23697,16690.0,26,16695.0,38,16695.0,16705.0,16680.0,16685.0,316,72,16680,29,16685,19
2016-06-02 09:31:00,09:31:01,09:31:54,23706,23840,16680.0,30,16685.0,15,16685.0,16685.0,16680.0,16685.0,84,-38,16680,26,16685,10
2016-06-02 09:32:00,09:32:00,09:32:58,23853,24115,16680.0,24,16685.0,9,16685.0,16700.0,16685.0,16695.0,282,46,16695,22,16700,18
2016-06-02 09:33:00,09:33:11,09:33:46,24131,24247,16695.0,20,16700.0,23,16700.0,16700.0,16695.0,16695.0,113,85,16695,27,16700,15
2016-06-02 09:34:00,09:34:16,09:34:54,24282,24439,16695.0,10,16700.0,27,16695.0,16695.0,16680.0,16685.0,115,-101,16680,28,16690,40
2016-06-02 09:35:00,09:35:06,09:35:58,24460,24845,16680.0,27,16685.0,23,16680.0,16695.0,16680.0,16695.0,472,-26,16690,32,16695,3
2016-06-02 09:36:00,09:36:02,09:36:57,24850,25041,16690.0,32,16695.0,6,16695.0,16700.0,16690.0,16695.0,157,49,16695,2,16700,24
2016-06-02 09:37:00,09:37:00,09:37:51,25045,25142,16695.0,4,16700.0,24,16695.0,16700.0,16695.0,16695.0,49,-3,16695,12,16700,31
2016-06-02 09:38:00,09:38:03,09:38:47,25157,25243,16695.0,20,16700.0,22,16695.0,16700.0,16695.0,16695.0,33,0,16690,28,16700,25
2016-06-02 09:39:00,09:39:07,09:39:50,25277,25392,16690.0,21,16695.0,11,16690.0,16700.0,16690.0,16695.0,75,-39,16690,26,16695,3
2016-06-02 09:40:00,09:40:02,09:40:57,25410,25683,16690.0,28,16695.0,8,16695.0,16695.0,16685.0,16685.0,248,-37,16685,52,16690,19
2016-06-02 09:41:00,09:41:06,09:41:58,25694,25854,16685.0,62,16690.0,5,16690.0,16705.0,16690.0,16695.0,151,69,16695,7,16700,36
2016-06-02 09:42:00,09:42:25,09:42:59,25881,25971,16695.0,22,16700.0,30,16695.0,16695.0,16685.0,16685.0,72,-72,16685,56,16690,26
2016-06-02 09:43:00,09:43:00,09:43:59,25976,26199,16685.0,56,16690.0,26,16685.0,16695.0,16685.0,16690.0,257,75,16685,17,16690,19
2016-06-02 09:44:00,09:44:09,09:44:58,26219,26572,16685.0,35,16690.0,26,16685.0,16685.0,16660.0,16665.0,386,-210,16665,8,16665,12
2016-06-02 09:45:00,09:45:01,09:45:57,26576,26961,16665.0,5,16670.0,26,16665.0,16665.0,16640.0,16655.0,459,-239,16655,14,16660,26
2016-06-02 09:46:00,09:46:02,09:46:36,26979,27267,16655.0,17,16660.0,22,16655.0,16670.0,16655.0,16665.0,290,-46,16665,18,16670,29
2016-06-02 09:47:00,09:47:05,09:47:44,27307,27456,16665.0,16,16670.0,33,16670.0,16670.0,16665.0,16665.0,87,13,16665,4,16670,22
2016-06-02 09:48:00,09:48:00,09:48:55,27486,27694,16665.0,7,16670.0,23,16665.0,16665.0,16655.0,16655.0,135,-89,16650,40,16660,32
2016-06-02 09:49:00,09:49:06,09:49:58,27711,27897,16655.0,26,16660.0,29,16660.0,16660.0,16655.0,16655.0,143,11,16655,11,16660,23
2016-06-02 09:50:00,09:50:07,09:50:54,27918,28290,16655.0,23,16660.0,27,16660.0,16675.0,16655.0,16675.0,473,257,16670,31,16675,13
2016-06-02 09:51:00,09:51:00,09:51:51,28298,28466,16670.0,34,16675.0,11,16675.0,16675.0,16670.0,16675.0,118,-32,16670,36,16675,5
2016-06-02 09:52:00,09:52:06,09:52:44,28487,28685,16670.0,25,16675.0,24,16670.0,16680.0,16670.0,16680.0,261,-5,16675,28,16680,6
2016-06-02 09:53:00,09:53:34,09:53:54,28738,28873,16675.0,13,16680.0,25,16675.0,16680.0,16670.0,16680.0,154,-100,16675,14,16680,39
2016-06-02 09:54:00,09:54:00,09:54:00,0,0,0.0,0,0.0,0,16680.0,16680.0,16680.0,16680.0,0,0,0,0,0,0
2016-06-02 09:55:00,09:55:00,09:55:59,28925,29066,16675.0,24,16680.0,38,16675.0,16675.0,16670.0,16675.0,102,-1,16670,33,16675,4
2016-06-02 09:56:00,09:56:08,09:56:59,29086,29503,16670.0,33,16675.0,29,16675.0,16685.0,16675.0,16685.0,457,-43,16680,28,16690,28
2016-06-02 09:57:00,09:57:01,09:57:57,29507,29748,16680.0,28,16685.0,3,16685.0,16690.0,16685.0,16685.0,242,96,16685,6,16690,36
2016-06-02 09:58:00,09:58:01,09:58:43,29755,29923,16685.0,13,16690.0,37,16685.0,16685.0,16670.0,16675.0,105,-53,16670,31,16680,28
2016-06-02 09:59:00,09:59:21,09:59:39,29972,30035,16670.0,24,16675.0,21,16675.0,16685.0,16675.0,16685.0,36,31,16680,11,16685,27
2016-06-02 10:00:00,10:00:01,10:00:49,30055,30182,16680.0,11,16685.0,31,16680.0,16685.0,16680.0,16680.0,110,14,16680,18,16685,26
2016-06-02 10:01:00,10:01:08,10:01:57,30193,30365,16680.0,7,16685.0,36,16680.0,16680.0,16670.0,16675.0,185,-114,16670,33,16675,21
2016-06-02 10:02:00,10:02:03,10:02:59,30372,30521,16670.0,30,16675.0,21,16675.0,16675.0,16665.0,16665.0,150,-62,16665,10,16670,23
2016-06-02 10:03:00,10:03:00,10:03:51,30522,30687,16665.0,19,16670.0,21,16665.0,16670.0,16660.0,16660.0,126,-78,16655,22,16660,34
2016-06-02 10:04:00,10:04:00,10:04:54,30694,30874,16655.0,24,16660.0,38,16655.0,16660.0,16655.0,16660.0,171,-14,16660,7,16665,31
2016-06-02 10:05:00,10:05:03,10:05:57,30876,31055,16660.0,7,16665.0,28,16660.0,16660.0,16650.0,16655.0,120,-18,16650,24,16655,8
2016-06-02 10:06:00,10:06:06,10:06:59,31075,31222,16650.0,21,16655.0,30,16650.0,16655.0,16650.0,16655.0,135,41,16650,35,16660,36
2016-06-02 10:07:00,10:07:00,10:07:48,31225,31322,16650.0,35,16660.0,36,16655.0,16665.0,16655.0,16665.0,47,33,16665,10,16670,21
2016-06-02 10:08:00,10:08:02,10:08:59,31340,31489,16665.0,9,16670.0,25,16665.0,16675.0,16665.0,16665.0,64,26,16665,16,16670,21
2016-06-02 10:09:00,10:09:02,10:09:59,31496,31585,16665.0,16,16670.0,23,16665.0,16670.0,16665.0,16665.0,43,-15,16665,6,16670,31
2016-06-02 10:10:00,10:10:03,10:10:59,31590,31722,16665.0,6,16670.0,31,16665.0,16665.0,16655.0,16655.0,59,-17,16650,38,16660,83
2016-06-02 10:11:00,10:11:00,10:11:56,31727,31988,16655.0,21,16660.0,81,16655.0,16655.0,16650.0,16650.0,345,-124,16645,33,16655,76
2016-06-02 10:12:00,10:12:02,10:12:56,31999,32263,16650.0,14,16655.0,77,16650.0,16650.0,16640.0,16640.0,330,115,16640,12,16640,10
2016-06-02 10:13:00,10:13:00,10:13:49,32268,33126,16640.0,4,16645.0,39,16640.0,16640.0,16605.0,16625.0,1543,-657,16625,22,16630,28
2016-06-02 10:14:00,10:14:06,10:14:59,33153,33324,16625.0,25,16630.0,31,16625.0,16640.0,16625.0,16635.0,178,-34,16635,8,16640,28
2016-06-02 10:15:00,10:15:01,10:15:54,33329,33547,16635.0,12,16640.0,30,16635.0,16635.0,16620.0,16625.0,170,-77,16625,8,16630,36
2016-06-02 10:16:00,10:16:06,10:16:51,33576,33719,16625.0,30,16630.0,18,16625.0,16630.0,16625.0,16625.0,117,37,16625,15,16630,21
2016-06-02 10:17:00,10:17:04,10:17:52,33749,33911,16625.0,32,16630.0,15,16630.0,16640.0,16625.0,16635.0,126,44,16630,34,16635,9
2016-06-02 10:18:00,10:18:04,10:18:59,33928,34053,16630.0,36,16635.0,15,16635.0,16635.0,16625.0,16625.0,53,13,16620,29,16625,6
2016-06-02 10:19:00,10:19:00,10:19:59,34054,34204,16620.0,32,16625.0,13,16625.0,16625.0,16620.0,16625.0,97,-32,16625,4,16630,31
2016-06-02 10:20:00,10:20:05,10:20:58,34216,34428,16625.0,13,16630.0,30,16625.0,16625.0,16610.0,16620.0,135,-34,16615,30,16620,10
2016-06-02 10:21:00,10:21:00,10:21:45,34435,34775,16615.0,30,16620.0,14,16615.0,16615.0,16605.0,16605.0,344,-224,16605,15,16610,21
2016-06-02 10:22:00,10:22:03,10:22:53,34801,34963,16605.0,17,16610.0,20,16605.0,16620.0,16605.0,16620.0,106,76,16615,38,16620,23
2016-06-02 10:23:00,10:23:14,10:23:59,34985,35124,16615.0,33,16620.0,34,16620.0,16625.0,16620.0,16620.0,176,166,16620,26,16625,37
2016-06-02 10:24:00,10:24:00,10:24:57,35129,35667,16620.0,24,16625.0,37,16620.0,16620.0,16590.0,16600.0,785,-210,16595,38,16600,7
2016-06-02 10:25:00,10:25:05,10:25:58,35685,36219,16595.0,12,16600.0,40,16595.0,16600.0,16575.0,16585.0,759,36,16580,35,16585,16
2016-06-02 10:26:00,10:26:00,10:26:57,36229,36546,16580.0,35,16585.0,18,16585.0,16585.0,16580.0,16585.0,368,49,16585,16,16590,71
2016-06-02 10:27:00,10:27:01,10:27:57,36556,36774,16585.0,17,16590.0,86,16585.0,16585.0,16580.0,16585.0,174,-3,16580,40,16585,27
2016-06-02 10:28:00,10:28:00,10:28:59,36782,37725,16580.0,33,16585.0,40,16580.0,16585.0,16545.0,16555.0,1358,-329,16550,31,16555,45
2016-06-02 10:29:00,10:29:05,10:29:59,37739,37976,16550.0,26,16555.0,54,16555.0,16565.0,16550.0,16565.0,270,207,16560,33,16565,40
2016-06-02 10:30:00,10:30:05,10:30:42,37991,38177,16560.0,20,16565.0,54,16565.0,16570.0,16560.0,16565.0,268,-28,16560,34,16565,9
2016-06-02 10:31:00,10:31:05,10:31:55,38220,38330,16560.0,31,16565.0,17,16565.0,16570.0,16565.0,16570.0,54,54,16565,39,16570,7
2016-06-02 10:32:00,10:32:04,10:32:48,38340,38481,16565.0,41,16570.0,5,16570.0,16570.0,16565.0,16570.0,131,79,16565,32,16570,11
2016-06-02 10:33:00,10:33:24,10:33:53,38534,38600,16565.0,16,16570.0,40,16565.0,16565.0,16560.0,16565.0,44,-8,16560,21,16565,12
2016-06-02 10:34:00,10:34:04,10:34:59,38624,38741,16560.0,18,16565.0,21,16560.0,16560.0,16555.0,16560.0,110,-46,16560,16,16565,99
2016-06-02 10:35:00,10:35:00,10:35:55,38744,38976,16560.0,9,16565.0,92,16560.0,16570.0,16550.0,16550.0,306,-54,16550,16,16555,25
2016-06-02 10:36:00,10:36:06,10:36:59,39003,39441,16550.0,7,16555.0,39,16550.0,16575.0,16545.0,16570.0,598,114,16565,39,16575,25
2016-06-02 10:37:00,10:37:01,10:37:56,39449,39689,16565.0,10,16570.0,25,16570.0,16585.0,16565.0,16565.0,247,61,16565,4,16570,26
2016-06-02 10:38:00,10:38:00,10:38:54,39696,39832,16565.0,14,16570.0,26,16570.0,16575.0,16570.0,16575.0,109,29,16570,35,16575,10
2016-06-02 10:39:00,10:39:34,10:39:56,39868,39916,16570.0,23,16575.0,18,16570.0,16575.0,16570.0,16575.0,30,20,16575,2,16580,42
2016-06-02 10:40:00,10:40:00,10:40:48,39927,39992,16570.0,27,16575.0,10,16575.0,16580.0,16575.0,16580.0,43,24,16575,41,16580,8
2016-06-02 10:41:00,10:41:44,10:41:46,40040,40064,16575.0,19,16580.0,30,16575.0,16575.0,16570.0,16570.0,22,-22,16570,27,16575,22
2016-06-02 10:42:00,10:42:05,10:42:50,40082,40196,16570.0,23,16575.0,26,16570.0,16575.0,16570.0,16570.0,129,-77,16570,26,16575,20
2016-06-02 10:43:00,10:43:03,10:43:44,40213,40271,16570.0,27,16575.0,16,16575.0,16580.0,16575.0,16575.0,30,-2,16575,11,16580,35
2016-06-02 10:44:00,10:44:03,10:44:47,40287,40368,16575.0,12,16580.0,34,16575.0,16575.0,16570.0,16575.0,49,-15,16575,47,16580,24
2016-06-02 10:45:00,10:45:00,10:45:51,40372,40472,16575.0,47,16580.0,26,16575.0,16580.0,16575.0,16580.0,86,54,16580,28,16585,104
2016-06-02 10:46:00,10:46:03,10:46:34,40477,40501,16580.0,28,16585.0,100,16580.0,16580.0,16580.0,16580.0,7,-7,16580,20,16585,103
2016-06-02 10:47:00,10:47:01,10:47:53,40510,40749,16580.0,27,16585.0,102,16585.0,16590.0,16580.0,16590.0,308,168,16585,31,16590,9
2016-06-02 10:48:00,10:48:02,10:48:59,40769,40872,16585.0,32,16590.0,16,16590.0,16590.0,16590.0,16590.0,73,51,16585,35,16590,6
2016-06-02 10:49:00,10:49:02,10:49:32,40879,40920,16585.0,32,16590.0,10,16590.0,16590.0,16590.0,16590.0,24,20,16590,33,16595,34
2016-06-02 10:50:00,10:50:04,10:50:58,40962,41102,16590.0,13,16595.0,31,16590.0,16590.0,16580.0,16585.0,115,-101,16580,36,16585,16
2016-06-02 10:51:00,10:51:04,10:51:53,41107,41202,16580.0,36,16585.0,13,16580.0,16580.0,16575.0,16575.0,59,-55,16575,12,16580,33
2016-06-02 10:52:00,10:52:05,10:52:56,41207,41337,16575.0,9,16580.0,33,16575.0,16580.0,16570.0,16575.0,103,5,16575,4,16580,32
2016-06-02 10:53:00,10:53:00,10:53:48,41341,41470,16575.0,5,16580.0,32,16575.0,16580.0,16570.0,16575.0,72,6,16570,31,16575,3
2016-06-02 10:54:00,10:54:01,10:54:57,41479,41594,16570.0,33,16575.0,5,16575.0,16575.0,16565.0,16575.0,97,-63,16570,27,16575,21
2016-06-02 10:55:00,10:55:05,10:55:07,41603,41635,16570.0,17,16575.0,56,16570.0,16570.0,16565.0,16570.0,46,-40,16570,4,16575,32
2016-06-02 10:56:00,10:56:02,10:56:49,41655,41705,16570.0,17,16575.0,32,16570.0,16575.0,16570.0,16575.0,26,-10,16570,21,16575,20
2016-06-02 10:57:00,10:57:40,10:57:45,41736,41754,16570.0,20,16575.0,50,16570.0,16570.0,16570.0,16570.0,28,-28,16570,10,16575,26
2016-06-02 10:58:00,10:58:30,10:58:55,41780,41819,16570.0,37,16575.0,16,16575.0,16575.0,16575.0,16575.0,24,4,16570,38,16580,30
2016-06-02 10:59:00,10:59:05,10:59:19,41828,41851,16575.0,8,16580.0,31,16575.0,16575.0,16575.0,16575.0,16,-8,16575,4,16580,30
2016-06-02 11:00:00,11:00:04,11:00:49,41899,41931,16575.0,9,16580.0,32,16575.0,16575.0,16575.0,16575.0,8,-8,16570,39,16580,29
2016-06-02 11:01:00,11:01:30,11:01:58,41959,42028,16575.0,16,16580.0,28,16575.0,16580.0,16570.0,16580.0,56,-28,16575,21,16580,22
2016-06-02 11:02:00,11:02:00,11:02:31,42031,42081,16575.0,21,16580.0,22,16575.0,16575.0,16570.0,16570.0,39,-38,16570,21,16575,12
2016-06-02 11:03:00,11:03:00,11:03:55,42121,42183,16570.0,22,16575.0,30,16570.0,16575.0,16570.0,16575.0,47,23,16575,1,16580,29
2016-06-02 11:04:00,11:04:54,11:04:56,42236,42271,16575.0,61,16580.0,16,16580.0,16580.0,16580.0,16580.0,52,40,16575,64,16580,13
2016-06-02 11:05:00,11:05:16,11:05:29,42297,42331,16575.0,51,16580.0,25,16580.0,16580.0,16580.0,16580.0,48,48,16575,61,16580,3
2016-06-02 11:06:00,11:06:01,11:06:59,42358,42469,16575.0,55,16580.0,28,16580.0,16580.0,16575.0,16580.0,82,45,16575,57,16580,2
2016-06-02 11:07:00,11:07:00,11:07:39,42470,42530,16580.0,9,16585.0,39,16580.0,16585.0,16580.0,16580.0,10,0,16580,15,16585,40
2016-06-02 11:08:00,11:08:38,11:08:38,42568,42568,16580.0,33,16585.0,35,16580.0,16580.0,16580.0,16580.0,1,-1,16580,32,16585,36
2016-06-02 11:09:00,11:09:00,11:09:40,42585,42643,16580.0,30,16585.0,31,16585.0,16585.0,16585.0,16585.0,26,20,16580,47,16585,28
2016-06-02 11:10:00,11:10:04,11:10:53,42651,42758,16580.0,51,16585.0,23,16580.0,16590.0,16580.0,16590.0,164,102,16590,7,16595,31
2016-06-02 11:11:00,11:11:04,11:11:49,42774,42918,16590.0,20,16595.0,47,16590.0,16590.0,16585.0,16590.0,140,44,16590,1,16595,46
2016-06-02 11:12:00,11:12:07,11:12:54,42938,43028,16590.0,30,16595.0,28,16595.0,16600.0,16595.0,16595.0,51,31,16590,34,16595,1
2016-06-02 11:13:00,11:13:06,11:13:55,43040,43108,16595.0,4,16600.0,42,16595.0,16600.0,16595.0,16600.0,44,22,16595,13,16600,43
2016-06-02 11:14:00,11:14:10,11:14:58,43120,43191,16595.0,12,16600.0,43,16600.0,16600.0,16595.0,16600.0,43,17,16595,23,16600,32
2016-06-02 11:15:00,11:15:54,11:15:57,43207,43244,16595.0,36,16600.0,31,16600.0,16600.0,16600.0,16600.0,57,57,16595,45,16600,4
2016-06-02 11:16:00,11:16:08,11:16:59,43252,43393,16595.0,42,16600.0,20,16600.0,16605.0,16595.0,16595.0,135,-35,16595,32,16600,23
2016-06-02 11:17:00,11:17:05,11:17:49,43397,43461,16595.0,37,16600.0,23,16600.0,16600.0,16600.0,16600.0,58,20,16595,47,16600,10
2016-06-02 11:18:00,11:18:31,11:18:48,43479,43523,16595.0,42,16600.0,25,16600.0,16600.0,16595.0,16600.0,47,-15,16595,29,16600,10
2016-06-02 11:19:00,11:19:03,11:19:50,43533,43562,16595.0,29,16600.0,24,16595.0,16600.0,16595.0,16600.0,2,0,16595,28,16600,20
2016-06-02 11:20:00,11:20:07,11:20:54,43577,43655,16595.0,16,16600.0,28,16595.0,16600.0,16595.0,16600.0,101,71,16595,31,16600,3
2016-06-02 11:21:00,11:21:06,11:21:54,43662,43686,16595.0,31,16600.0,12,16600.0,16600.0,16595.0,16595.0,26,-2,16595,29,16600,27
2016-06-02 11:22:00,11:22:17,11:22:39,43704,43742,16595.0,25,16600.0,26,16600.0,16605.0,16600.0,16605.0,78,48,16605,56,16610,34
2016-06-02 11:23:00,11:23:13,11:23:54,43756,43818,16605.0,64,16610.0,30,16610.0,16610.0,16610.0,16610.0,77,77,16605,30,16610,24
2016-06-02 11:24:00,11:24:37,11:24:50,43838,43877,16605.0,32,16610.0,31,16605.0,16610.0,16605.0,16610.0,77,71,16605,34,16610,10
2016-06-02 11:25:00,11:25:02,11:25:51,43890,43949,16605.0,27,16610.0,24,16605.0,16610.0,16605.0,16610.0,39,-5,16605,29,16610,10
2016-06-02 11:26:00,11:26:19,11:26:25,43981,43997,16605.0,21,16610.0,13,16605.0,16605.0,16605.0,16605.0,13,-11,16605,11,16610,45
2016-06-02 11:27:00,11:27:28,11:27:33,44049,44069,16605.0,36,16610.0,50,16605.0,16605.0,16605.0,16605.0,27,-27,16605,14,16610,58
2016-06-02 11:28:00,11:28:47,11:28:55,44116,44125,16605.0,18,16610.0,40,16605.0,16605.0,16605.0,16605.0,7,-7,16605,16,16610,39
2016-06-02 11:29:00,11:29:01,11:29:59,44129,44373,16605.0,12,16610.0,41,16605.0,16615.0,16605.0,16610.0,249,22,16605,21,16610,18
2016-06-02 11:30:00,11:30:00,11:30:57,44376,44906,16605.0,21,16610.0,18,16605.0,16615.0,16590.0,16590.0,683,-103,16585,50,16595,38
2016-06-02 11:31:00,11:31:02,11:31:36,44921,45045,16585.0,37,16590.0,28,16585.0,16590.0,16580.0,16580.0,126,12,16575,34,16580,6
2016-06-02 11:32:00,11:32:00,11:32:53,45069,45240,16575.0,25,16580.0,33,16575.0,16585.0,16570.0,16585.0,194,25,16585,24,16590,22
2016-06-02 11:33:00,11:33:00,11:33:46,45253,45383,16585.0,36,16590.0,12,16590.0,16595.0,16585.0,16595.0,114,-32,16595,12,16600,45
2016-06-02 11:34:00,11:34:02,11:34:42,45405,45569,16595.0,42,16600.0,29,16600.0,16605.0,16595.0,16600.0,195,99,16600,28,16605,19
2016-06-02 11:35:00,11:35:02,11:35:56,45614,45781,16600.0,25,16605.0,20,16600.0,16610.0,16600.0,16605.0,133,-29,16605,8,16605,9
2016-06-02 11:36:00,11:36:02,11:36:59,45785,45951,16605.0,15,16610.0,51,16605.0,16610.0,16605.0,16605.0,139,71,16600,26,16605,19
2016-06-02 11:37:00,11:37:03,11:37:42,45955,46041,16600.0,26,16605.0,17,16605.0,16610.0,16605.0,16610.0,63,43,16605,32,16615,37
2016-06-02 11:38:00,11:38:05,11:38:57,46067,46224,16605.0,18,16610.0,30,16605.0,16605.0,16595.0,16595.0,123,29,16595,15,16600,43
2016-06-02 11:39:00,11:39:00,11:39:38,46229,46317,16595.0,13,16600.0,43,16595.0,16600.0,16595.0,16595.0,128,-38,16595,62,16600,36
2016-06-02 11:40:00,11:40:04,11:40:59,46345,46439,16595.0,70,16600.0,37,16600.0,16605.0,16600.0,16605.0,92,88,16600,34,16605,27
2016-06-02 11:41:00,11:41:01,11:41:59,46445,46914,16600.0,36,16605.0,32,16605.0,16605.0,16570.0,16585.0,593,-253,16580,31,16585,17
2016-06-02 11:42:00,11:42:00,11:42:59,46918,46995,16580.0,31,16585.0,12,16585.0,16585.0,16580.0,16580.0,40,-22,16580,28,16585,32
2016-06-02 11:43:00,11:43:00,11:43:40,46998,47029,16580.0,28,16585.0,32,16580.0,16580.0,16580.0,16580.0,7,-7,16580,19,16585,37
2016-06-02 11:44:00,11:44:01,11:44:58,47048,47209,16580.0,19,16585.0,36,16580.0,16580.0,16575.0,16575.0,131,-95,16575,13,16580,30
2016-06-02 11:45:00,11:45:00,11:45:57,47213,47308,16575.0,9,16580.0,30,16575.0,16580.0,16570.0,16570.0,58,-56,16570,27,16575,11
2016-06-02 11:46:00,11:46:04,11:46:57,47316,47409,16570.0,26,16575.0,27,16570.0,16575.0,16570.0,16575.0,58,-14,16575,44,16580,43
2016-06-02 11:47:00,11:47:14,11:47:53,47424,47466,16575.0,51,16580.0,43,16575.0,16580.0,16575.0,16580.0,11,5,16575,52,16580,29
2016-06-02 11:48:00,11:48:04,11:48:55,47478,47611,16575.0,51,16580.0,30,16580.0,16585.0,16575.0,16575.0,128,-12,16570,29,16575,11
2016-06-02 11:49:00,11:49:02,11:49:58,47621,47781,16570.0,32,16575.0,17,16575.0,16580.0,16575.0,16575.0,128,82,16575,22,16580,36
2016-06-02 11:50:00,11:50:03,11:50:45,47791,47878,16575.0,23,16580.0,34,16575.0,16585.0,16575.0,16585.0,83,81,16585,24,16590,37
2016-06-02 11:51:00,11:51:22,11:51:24,47903,47934,16585.0,23,16590.0,59,16585.0,16585.0,16585.0,16585.0,42,-42,16585,10,16590,56
2016-06-02 11:52:00,11:52:33,11:52:49,47994,48049,16585.0,50,16590.0,46,16585.0,16590.0,16585.0,16590.0,83,33,16585,42,16590,24
2016-06-02 11:53:00,11:53:12,11:53:18,48071,48093,16585.0,7,16590.0,56,16585.0,16585.0,16585.0,16585.0,20,0,16580,43,16590,50
2016-06-02 11:54:00,11:54:02,11:54:59,48116,48301,16585.0,10,16590.0,50,16585.0,16585.0,16575.0,16575.0,205,65,16570,27,16575,1
2016-06-02 11:55:00,11:55:00,11:55:48,48304,48457,16570.0,27,16575.0,1,16575.0,16575.0,16565.0,16570.0,123,-77,16570,33,16575,34
2016-06-02 11:56:00,11:56:07,11:56:35,48470,48509,16570.0,44,16575.0,4,16575.0,16575.0,16570.0,16570.0,16,14,16570,26,16575,39
2016-06-02 11:57:00,11:57:10,11:57:23,48530,48542,16570.0,26,16575.0,39,16570.0,16570.0,16570.0,16570.0,13,-13,16570,14,16575,43
2016-06-02 11:58:00,11:58:08,11:58:58,48578,48830,16570.0,13,16575.0,41,16575.0,16585.0,16575.0,16585.0,249,-21,16580,40,16585,43
2016-06-02 11:59:00,11:59:02,11:59:29,48838,48964,16580.0,39,16585.0,51,16580.0,16580.0,16580.0,16580.0,143,-102,16575,41,16580,44
2016-06-02 12:00:00,12:00:00,12:00:41,48979,49067,16575.0,42,16580.0,48,16575.0,16580.0,16575.0,16580.0,96,76,16575,52,16580,8
2016-06-02 12:01:00,12:01:23,12:01:52,49108,49175,16575.0,25,16580.0,50,16575.0,16580.0,16575.0,16580.0,45,-5,16575,50,16580,30
2016-06-02 12:02:00,12:02:10,12:02:42,49191,49209,16575.0,50,16580.0,27,16580.0,16580.0,16580.0,16580.0,3,3,16575,47,16580,25
2016-06-02 12:03:00,12:03:18,12:03:43,49235,49343,16575.0,48,16580.0,31,16575.0,16575.0,16565.0,16565.0,118,-102,16560,46,16565,26
2016-06-02 12:04:00,12:04:10,12:04:52,49381,49566,16560.0,49,16565.0,31,16565.0,16565.0,16545.0,16555.0,283,-153,16550,47,16555,2
2016-06-02 12:05:00,12:05:21,12:05:44,49608,49717,16550.0,45,16555.0,33,16555.0,16555.0,16550.0,16550.0,160,-130,16550,33,16555,30
2016-06-02 12:06:00,12:06:05,12:06:51,49737,49803,16550.0,38,16555.0,36,16555.0,16560.0,16555.0,16560.0,50,46,16555,51,16560,22
2016-06-02 12:07:00,12:07:02,12:07:35,49816,49900,16555.0,55,16560.0,23,16560.0,16560.0,16555.0,16555.0,62,-46,16555,14,16560,46
2016-06-02 12:08:00,12:08:07,12:08:59,49921,50052,16555.0,28,16560.0,39,16555.0,16560.0,16555.0,16560.0,144,-14,16555,49,16560,29
2016-06-02 12:09:00,12:09:00,12:09:55,50056,50148,16555.0,49,16560.0,35,16555.0,16555.0,16550.0,16555.0,69,-47,16550,33,16555,7
2016-06-02 12:10:00,12:10:04,12:10:42,50155,50213,16550.0,33,16555.0,7,16550.0,16550.0,16550.0,16550.0,89,-89,16550,18,16555,41
2016-06-02 12:11:00,12:11:05,12:11:28,50228,50260,16550.0,25,16555.0,72,16550.0,16550.0,16550.0,16550.0,63,-53,16550,20,16555,73
2016-06-02 12:12:00,12:12:05,12:12:57,50284,50379,16550.0,40,16555.0,70,16550.0,16550.0,16550.0,16550.0,121,-121,16550,24,16555,53
2016-06-02 12:13:00,12:13:05,12:13:58,50396,50558,16550.0,24,16555.0,54,16550.0,16555.0,16550.0,16550.0,356,-118,16545,97,16550,14
2016-06-02 12:14:00,12:14:00,12:14:59,50562,50811,16545.0,98,16550.0,14,16550.0,16555.0,16550.0,16555.0,439,69,16550,261,16560,50
2016-06-02 12:15:00,12:15:00,12:15:58,50814,51066,16550.0,261,16560.0,50,16555.0,16555.0,16550.0,16550.0,366,-6,16550,27,16555,49
2016-06-02 12:16:00,12:16:00,12:16:56,51069,51341,16550.0,27,16555.0,49,16550.0,16550.0,16540.0,16545.0,303,13,16540,42,16545,6
2016-06-02 12:17:00,12:17:11,12:17:41,51366,51684,16540.0,41,16545.0,16,16540.0,16540.0,16520.0,16525.0,483,-228,16525,25,16530,27
2016-06-02 12:18:00,12:18:03,12:18:57,51708,51819,16525.0,31,16530.0,30,16530.0,16530.0,16525.0,16530.0,49,-31,16525,20,16530,27
2016-06-02 12:19:00,12:19:05,12:19:42,51825,51930,16525.0,20,16530.0,33,16525.0,16530.0,16520.0,16525.0,92,-3,16520,40,16530,57
2016-06-02 12:20:00,12:20:05,12:20:35,51951,52044,16525.0,12,16530.0,45,16525.0,16530.0,16525.0,16525.0,57,0,16525,14,16530,27
2016-06-02 12:21:00,12:21:00,12:21:49,52066,52227,16525.0,14,16530.0,29,16525.0,16540.0,16525.0,16540.0,131,99,16535,44,16540,29
2016-06-02 12:22:00,12:22:05,12:22:55,52245,52339,16535.0,36,16540.0,53,16535.0,16540.0,16535.0,16535.0,95,-81,16535,26,16540,46
2016-06-02 12:23:00,12:23:05,12:23:24,52341,52404,16535.0,26,16540.0,48,16535.0,16540.0,16535.0,16540.0,53,14,16535,55,16540,4
2016-06-02 12:24:00,12:24:05,12:24:57,52441,52565,16535.0,47,16540.0,16,16535.0,16545.0,16535.0,16545.0,91,39,16540,43,16545,23
2016-06-02 12:25:00,12:25:12,12:25:58,52578,52696,16540.0,35,16545.0,41,16545.0,16550.0,16545.0,16545.0,145,99,16545,2,16550,48
2016-06-02 12:26:00,12:26:08,12:26:54,52707,52810,16545.0,19,16550.0,42,16545.0,16555.0,16545.0,16555.0,94,20,16550,13,16555,38
2016-06-02 12:27:00,12:27:01,12:27:56,52823,53032,16550.0,28,16555.0,14,16555.0,16560.0,16550.0,16560.0,197,90,16560,6,16565,60
2016-06-02 12:28:00,12:28:00,12:28:57,53041,53173,16560.0,23,16565.0,56,16560.0,16565.0,16560.0,16565.0,98,-2,16560,40,16565,41
2016-06-02 12:29:00,12:29:07,12:29:56,53181,53273,16560.0,44,16565.0,43,16565.0,16565.0,16560.0,16565.0,116,104,16565,63,16570,52
2016-06-02 12:30:00,12:30:00,12:30:58,53275,53410,16565.0,63,16570.0,34,16565.0,16575.0,16565.0,16575.0,142,4,16570,37,16575,50
2016-06-02 12:31:00,12:31:09,12:31:52,53419,53531,16570.0,39,16575.0,48,16570.0,16575.0,16565.0,16565.0,101,-81,16565,7,16570,58
2016-06-02 12:32:00,12:32:09,12:32:56,53553,53635,16565.0,18,16570.0,56,16565.0,16565.0,16560.0,16560.0,70,-70,16560,46,16565,30
2016-06-02 12:33:00,12:33:01,12:33:59,53639,53789,16560.0,48,16565.0,30,16565.0,16565.0,16560.0,16565.0,91,29,16565,1,16570,73
2016-06-02 12:34:00,12:34:01,12:34:40,53793,53856,16560.0,48,16570.0,73,16565.0,16565.0,16555.0,16555.0,49,-39,16555,35,16560,53
2016-06-02 12:35:00,12:35:09,12:35:58,53895,54212,16555.0,42,16560.0,48,16555.0,16560.0,16555.0,16560.0,538,-45,16555,49,16560,43
2016-06-02 12:36:00,12:36:02,12:36:39,54218,54266,16555.0,53,16560.0,61,16560.0,16565.0,16560.0,16565.0,73,57,16565,19,16570,42
2016-06-02 12:37:00,12:37:10,12:37:40,54297,54343,16565.0,39,16570.0,37,16565.0,16565.0,16565.0,16565.0,19,-19,16565,54,16570,40
2016-06-02 12:38:00,12:38:04,12:38:59,54364,54439,16565.0,46,16570.0,43,16570.0,16570.0,16565.0,16570.0,77,63,16570,40,16575,46
2016-06-02 12:39:00,12:39:04,12:39:41,54447,54658,16570.0,76,16575.0,40,16570.0,16575.0,16570.0,16575.0,238,-70,16575,11,16580,53
2016-06-02 12:40:00,12:40:16,12:40:49,54701,54781,16575.0,44,16580.0,37,16580.0,16580.0,16575.0,16575.0,78,-30,16575,10,16580,39
2016-06-02 12:41:00,12:41:02,12:41:38,54801,54846,16575.0,16,16580.0,48,16580.0,16580.0,16575.0,16575.0,33,29,16575,21,16580,42
2016-06-02 12:42:00,12:42:08,12:42:58,54865,54984,16575.0,25,16580.0,40,16575.0,16580.0,16570.0,16580.0,131,-41,16575,35,16580,36
2016-06-02 12:43:00,12:43:37,12:43:50,55004,55020,16575.0,40,16580.0,39,16575.0,16575.0,16575.0,16575.0,7,-7,16575,10,16580,41
2016-06-02 12:44:00,12:44:17,12:44:59,55044,55101,16575.0,22,16580.0,39,16580.0,16585.0,16580.0,16585.0,62,52,16580,106,16585,32
2016-06-02 12:45:00,12:45:12,12:45:45,55108,55193,16580.0,112,16585.0,32,16585.0,16585.0,16585.0,16585.0,97,92,16580,131,16590,52
2016-06-02 12:46:00,12:46:17,12:46:33,55216,55242,16585.0,47,16590.0,41,16585.0,16590.0,16585.0,16590.0,6,2,16585,42,16590,36
2016-06-02 12:47:00,12:47:02,12:47:02,55267,55285,16585.0,56,16590.0,38,16590.0,16590.0,16590.0,16590.0,35,35,16585,76,16595,86
2016-06-02 12:48:00,12:48:03,12:48:57,55333,55516,16590.0,49,16595.0,61,16595.0,16610.0,16595.0,16610.0,180,154,16605,64,16610,22
2016-06-02 12:49:00,12:49:01,12:49:58,55525,55678,16605.0,64,16610.0,32,16610.0,16610.0,16605.0,16605.0,194,42,16605,17,16610,64
2016-06-02 12:50:00,12:50:01,12:50:57,55685,55817,16605.0,10,16610.0,64,16605.0,16610.0,16605.0,16605.0,144,25,16600,64,16605,5
2016-06-02 12:51:00,12:51:04,12:51:35,55827,55866,16600.0,64,16605.0,6,16605.0,16605.0,16605.0,16605.0,7,5,16605,35,16610,28
2016-06-02 12:52:00,12:52:17,12:52:58,55910,55985,16605.0,18,16610.0,41,16605.0,16605.0,16605.0,16605.0,70,-32,16600,70,16605,2
2016-06-02 12:53:00,12:53:00,12:53:59,55989,56407,16600.0,72,16605.0,2,16605.0,16635.0,16595.0,16635.0,569,271,16630,44,16635,31
2016-06-02 12:54:00,12:54:00,12:54:50,56410,56571,16630.0,44,16635.0,31,16635.0,16635.0,16630.0,16635.0,124,5,16635,10,16640,62
2016-06-02 12:55:00,12:55:04,12:55:51,56587,56698,16635.0,30,16640.0,57,16635.0,16635.0,16630.0,16635.0,102,-82,16630,45,16635,8
2016-06-02 12:56:00,12:56:17,12:56:54,56721,56796,16630.0,45,16635.0,24,16635.0,16635.0,16635.0,16635.0,52,14,16635,6,16640,38
2016-06-02 12:57:00,12:57:09,12:57:09,56820,56821,16635.0,23,16640.0,44,16635.0,16635.0,16635.0,16635.0,2,-2,16635,21,16640,45
2016-06-02 12:58:00,12:58:31,12:58:50,56892,56948,16635.0,18,16640.0,44,16640.0,16640.0,16635.0,16635.0,70,30,16635,18,16640,29
2016-06-02 12:59:00,12:59:02,12:59:44,56960,57155,16635.0,28,16640.0,25,16635.0,16650.0,16630.0,16645.0,252,-6,16640,59,16645,11
2016-06-02 13:00:00,13:00:00,13:00:59,57174,57433,16640.0,41,16645.0,26,16645.0,16645.0,16630.0,16630.0,325,-141,16625,64,16630,22
2016-06-02 13:01:00,13:01:00,13:01:48,57434,57671,16625.0,67,16630.0,32,16630.0,16635.0,16625.0,16630.0,270,66,16630,31,16635,35
2016-06-02 13:02:00,13:02:03,13:02:47,57697,57878,16630.0,47,16635.0,20,16635.0,16645.0,16635.0,16645.0,326,233,16640,96,16645,9
2016-06-02 13:03:00,13:03:02,13:03:59,57889,58029,16640.0,95,16645.0,20,16645.0,16645.0,16640.0,16640.0,286,-132,16640,114,16645,40
2016-06-02 13:04:00,13:04:00,13:04:58,58032,58296,16640.0,114,16645.0,40,16640.0,16665.0,16640.0,16655.0,383,134,16650,48,16655,27
2016-06-02 13:05:00,13:05:01,13:05:50,58304,58468,16650.0,32,16655.0,49,16655.0,16655.0,16650.0,16655.0,235,211,16650,36,16655,14
2016-06-02 13:06:00,13:06:12,13:06:59,58491,58805,16650.0,29,16655.0,52,16655.0,16660.0,16650.0,16650.0,420,52,16650,4,16655,43
2016-06-02 13:07:00,13:07:00,13:07:31,58810,58945,16650.0,6,16655.0,41,16650.0,16660.0,16650.0,16660.0,103,35,16655,36,16660,27
2016-06-02 13:08:00,13:08:07,13:08:45,58988,59092,16655.0,23,16660.0,59,16660.0,16660.0,16655.0,16655.0,98,36,16655,9,16660,35
2016-06-02 13:09:00,13:09:01,13:09:51,59102,59228,16655.0,26,16660.0,38,16655.0,16655.0,16645.0,16645.0,136,-130,16640,21,16645,53
2016-06-02 13:10:00,13:10:09,13:10:27,59253,59306,16640.0,49,16645.0,37,16640.0,16640.0,16640.0,16640.0,51,-41,16635,55,16640,13
2016-06-02 13:11:00,13:11:08,13:11:57,59352,59493,16635.0,58,16640.0,24,16640.0,16645.0,16640.0,16640.0,151,-8,16640,12,16645,42
2016-06-02 13:12:00,13:12:05,13:12:54,59505,59652,16640.0,36,16645.0,28,16640.0,16640.0,16630.0,16630.0,153,-99,16630,31,16635,40
2016-06-02 13:13:00,13:13:08,13:13:51,59670,59776,16630.0,25,16635.0,44,16630.0,16635.0,16630.0,16630.0,84,-52,16630,5,16635,36
2016-06-02 13:14:00,13:14:02,13:14:59,59791,59981,16630.0,17,16635.0,35,16635.0,16635.0,16625.0,16625.0,199,-32,16625,14,16630,90
2016-06-02 13:15:00,13:15:15,13:15:51,59999,60070,16625.0,21,16630.0,91,16625.0,16630.0,16625.0,16625.0,47,-31,16620,45,16625,9
2016-06-02 13:16:00,13:16:03,13:16:27,60080,60194,16620.0,41,16625.0,65,16620.0,16625.0,16620.0,16625.0,198,-34,16620,50,16625,12
2016-06-02 13:17:00,13:17:22,13:17:57,60261,60417,16620.0,26,16625.0,50,16620.0,16620.0,16610.0,16610.0,165,-133,16610,20,16615,46
2016-06-02 13:18:00,13:18:09,13:18:52,60427,60563,16610.0,30,16615.0,45,16610.0,16615.0,16610.0,16610.0,162,-96,16610,9,16615,42
2016-06-02 13:19:00,13:19:02,13:19:52,60571,60622,16610.0,10,16615.0,42,16610.0,16615.0,16610.0,16615.0,24,20,16610,37,16615,40
2016-06-02 13:20:00,13:20:05,13:20:55,60634,60761,16610.0,16,16615.0,45,16615.0,16620.0,16610.0,16620.0,97,43,16620,45,16625,83
2016-06-02 13:21:00,13:21:02,13:21:31,60773,60877,16620.0,36,16625.0,87,16620.0,16625.0,16620.0,16625.0,143,35,16620,49,16630,77
2016-06-02 13:22:00,13:22:12,13:22:59,60900,61001,16625.0,25,16630.0,70,16625.0,16625.0,16610.0,16610.0,99,-99,16610,12,16615,22
2016-06-02 13:23:00,13:23:07,13:23:51,61016,61114,16610.0,33,16615.0,21,16610.0,16615.0,16605.0,16610.0,84,-24,16605,43,16615,53
2016-06-02 13:24:00,13:24:00,13:24:46,61122,61185,16605.0,32,16610.0,23,16610.0,16610.0,16610.0,16610.0,25,25,16610,1,16615,60
2016-06-02 13:25:00,13:25:09,13:25:52,61214,61312,16605.0,29,16610.0,32,16605.0,16610.0,16605.0,16605.0,76,-46,16600,44,16605,22
2016-06-02 13:26:00,13:26:00,13:26:57,61323,61602,16600.0,39,16605.0,49,16600.0,16600.0,16595.0,16595.0,486,-406,16590,53,16595,10
2016-06-02 13:27:00,13:27:14,13:27:48,61634,61753,16590.0,62,16595.0,6,16595.0,16595.0,16590.0,16590.0,102,-37,16585,54,16590,29
2016-06-02 13:28:00,13:28:02,13:28:54,61766,61963,16585.0,45,16590.0,38,16585.0,16585.0,16575.0,16575.0,295,-167,16575,5,16580,49
2016-06-02 13:29:00,13:29:00,13:29:57,61976,62312,16575.0,27,16580.0,42,16575.0,16585.0,16570.0,16575.0,467,-113,16570,38,16575,12
2016-06-02 13:30:00,13:30:03,13:30:57,62320,62810,16570.0,25,16575.0,40,16570.0,16570.0,16550.0,16565.0,909,-562,16565,4,16570,52
2016-06-02 13:31:00,13:31:03,13:31:58,62826,63039,16565.0,12,16570.0,56,16570.0,16570.0,16565.0,16565.0,374,1,16565,13,16570,38
2016-06-02 13:32:00,13:32:05,13:32:55,63047,63179,16565.0,17,16570.0,38,16570.0,16575.0,16570.0,16570.0,130,39,16565,28,16570,37
2016-06-02 13:33:00,13:33:00,13:33:57,63190,63377,16565.0,29,16570.0,32,16570.0,16570.0,16555.0,16555.0,188,-140,16555,16,16560,29
2016-06-02 13:34:00,13:34:01,13:34:57,63384,63613,16555.0,10,16560.0,35,16555.0,16555.0,16535.0,16535.0,261,-141,16535,34,16540,22
2016-06-02 13:35:00,13:35:00,13:35:49,63620,63799,16535.0,41,16540.0,19,16540.0,16555.0,16540.0,16555.0,227,-101,16550,26,16555,13
2016-06-02 13:36:00,13:36:15,13:36:53,63819,63891,16550.0,45,16555.0,33,16550.0,16555.0,16550.0,16555.0,41,-7,16550,45,16555,4
2016-06-02 13:37:00,13:37:07,13:37:54,63910,64052,16550.0,50,16555.0,14,16555.0,16565.0,16555.0,16560.0,112,48,16560,8,16565,55
2016-06-02 13:38:00,13:38:00,13:38:58,64062,64257,16560.0,9,16565.0,59,16560.0,16560.0,16540.0,16540.0,198,-165,16540,34,16545,44
2016-06-02 13:39:00,13:39:00,13:39:59,64264,64559,16540.0,17,16545.0,48,16540.0,16550.0,16540.0,16545.0,410,-28,16540,36,16545,14
2016-06-02 13:40:00,13:40:03,13:40:58,64568,64792,16540.0,35,16545.0,15,16540.0,16545.0,16540.0,16540.0,235,-23,16540,11,16545,75
2016-06-02 13:41:00,13:41:00,13:41:59,64798,65041,16540.0,11,16545.0,73,16540.0,16545.0,16530.0,16535.0,223,-8,16535,2,16540,52
2016-06-02 13:42:00,13:42:00,13:42:57,65044,65267,16535.0,2,16540.0,52,16535.0,16540.0,16530.0,16530.0,241,-19,16525,34,16530,8
2016-06-02 13:43:00,13:43:00,13:43:58,65274,65874,16525.0,32,16530.0,23,16525.0,16575.0,16525.0,16570.0,822,535,16570,9,16575,106
2016-06-02 13:44:00,13:44:00,13:44:53,65879,66030,16570.0,16,16575.0,106,16570.0,16575.0,16570.0,16575.0,97,-69,16570,46,16575,79
2016-06-02 13:45:00,13:45:00,13:45:59,66039,66423,16570.0,50,16575.0,80,16570.0,16600.0,16570.0,16595.0,501,265,16590,45,16595,12
2016-06-02 13:46:00,13:46:00,13:46:59,66426,66913,16590.0,45,16595.0,12,16595.0,16610.0,16595.0,16595.0,785,-11,16590,55,16595,14
2016-06-02 13:47:00,13:47:00,13:47:59,66917,67132,16590.0,55,16595.0,12,16595.0,16595.0,16585.0,16590.0,248,60,16585,53,16595,52
2016-06-02 13:48:00,13:48:12,13:48:43,67149,67248,16585.0,49,16590.0,38,16590.0,16595.0,16585.0,16595.0,89,21,16590,55,16595,35
2016-06-02 13:49:00,13:49:01,13:49:48,67260,67443,16590.0,57,16595.0,36,16595.0,16595.0,16590.0,16590.0,182,10,16590,6,16595,55
2016-06-02 13:50:00,13:50:02,13:50:59,67462,67737,16585.0,42,16590.0,41,16585.0,16585.0,16565.0,16570.0,312,-150,16565,57,16570,6
2016-06-02 13:51:00,13:51:00,13:51:55,67740,67884,16565.0,57,16570.0,6,16570.0,16575.0,16570.0,16575.0,125,-16,16570,34,16575,58
2016-06-02 13:52:00,13:52:02,13:52:45,67890,68046,16570.0,31,16575.0,58,16570.0,16580.0,16570.0,16570.0,200,4,16565,33,16570,45
2016-06-02 13:53:00,13:53:13,13:53:56,68089,68331,16565.0,59,16570.0,20,16570.0,16570.0,16550.0,16555.0,317,-43,16555,36,16560,51
2016-06-02 13:54:00,13:54:05,13:54:58,68342,68602,16555.0,51,16560.0,37,16555.0,16575.0,16550.0,16570.0,331,46,16565,41,16570,37
2016-06-02 13:55:00,13:55:01,13:55:57,68610,68895,16565.0,45,16570.0,28,16565.0,16570.0,16555.0,16555.0,391,-143,16555,6,16560,43
2016-06-02 13:56:00,13:56:03,13:56:56,68913,69120,16555.0,32,16560.0,19,16560.0,16565.0,16555.0,16560.0,234,100,16555,37,16560,44
2016-06-02 13:57:00,13:57:11,13:57:59,69139,69301,16555.0,47,16560.0,66,16560.0,16560.0,16555.0,16555.0,167,-104,16550,85,16555,2
2016-06-02 13:58:00,13:58:00,13:58:59,69304,69424,16550.0,85,16555.0,2,16555.0,16560.0,16555.0,16555.0,86,14,16555,46,16560,60
2016-06-02 13:59:00,13:59:04,13:59:59,69440,69961,16555.0,69,16560.0,70,16560.0,16570.0,16550.0,16550.0,1045,-415,16550,74,16555,7
2016-06-02 14:00:00,14:00:00,14:00:58,69965,70753,16550.0,74,16555.0,1,16550.0,16560.0,16540.0,16555.0,1583,438,16555,2,16560,76
2016-06-02 14:01:00,14:01:00,14:01:58,70763,71197,16555.0,66,16560.0,66,16560.0,16565.0,16555.0,16555.0,732,130,16555,14,16560,70
2016-06-02 14:02:00,14:02:01,14:02:54,71204,71371,16555.0,17,16560.0,68,16555.0,16560.0,16555.0,16555.0,139,69,16550,137,16555,59
2016-06-02 14:03:00,14:03:00,14:03:55,71385,71587,16550.0,139,16555.0,80,16550.0,16560.0,16550.0,16555.0,232,18,16550,139,16555,33
2016-06-02 14:04:00,14:04:00,14:04:58,71598,71765,16550.0,142,16555.0,40,16555.0,16555.0,16550.0,16555.0,244,22,16550,82,16555,42
2016-06-02 14:05:00,14:05:00,14:05:58,71770,72002,16550.0,68,16555.0,67,16555.0,16555.0,16545.0,16545.0,263,-149,16545,97,16550,78
2016-06-02 14:06:00,14:06:00,14:06:56,72005,72234,16545.0,97,16550.0,78,16550.0,16555.0,16545.0,16550.0,401,-11,16545,105,16550,60
2016-06-02 14:07:00,14:07:09,14:07:59,72246,72480,16545.0,127,16550.0,41,16550.0,16555.0,16545.0,16550.0,473,158,16550,4,16555,98
2016-06-02 14:08:00,14:08:01,14:08:55,72487,73024,16550.0,18,16555.0,88,16555.0,16580.0,16550.0,16560.0,1473,711,16560,4,16565,107
2016-06-02 14:09:00,14:09:00,14:09:59,73034,73240,16560.0,42,16565.0,92,16565.0,16575.0,16555.0,16575.0,380,202,16575,9,16580,51
