,ST,ET,sidx,eidx,bB,bBS,bA,bAS,O,H,L,C,V,OF,eB,eBS,eA,eAS
2016-07-18 08:00:00,08:00:00,08:00:54,999,1116,16510.0,3,16520.0,36,16520.0,16545.0,16515.0,16525.0,100,52,16525,1,16530,3
2016-07-18 08:01:00,08:01:12,08:01:53,1126,1159,16525.0,9,16530.0,30,16530.0,16530.0,16515.0,16520.0,19,1,16515,2,16520,5
2016-07-18 08:02:00,08:02:03,08:02:57,1170,1254,16510.0,7,16515.0,4,16510.0,16520.0,16505.0,16505.0,36,-6,16500,9,16505,4
2016-07-18 08:03:00,08:03:13,08:03:56,1277,1303,16510.0,8,16515.0,18,16515.0,16520.0,16515.0,16520.0,21,21,16515,9,16520,5
2016-07-18 08:04:00,08:04:04,08:04:59,1308,1382,16515.0,8,16520.0,2,16520.0,16525.0,16510.0,16515.0,57,-12,16510,6,16515,4
2016-07-18 08:05:00,08:05:07,08:05:32,1394,1413,16510.0,6,16515.0,3,16515.0,16515.0,16515.0,16515.0,7,1,16515,2,16520,7
2016-07-18 08:06:00,08:06:00,08:06:23,1435,1516,16510.0,6,16515.0,3,16510.0,16510.0,16495.0,16500.0,61,-35,16500,5,16505,2
2016-07-18 08:07:00,08:07:03,08:07:34,1534,1579,16500.0,5,16505.0,6,16505.0,16515.0,16500.0,16515.0,36,32,16510,9,16515,1
2016-07-18 08:08:00,08:08:04,08:08:34,1587,1637,16510.0,8,16520.0,11,16520.0,16525.0,16520.0,16525.0,28,17,16520,7,16525,23
2016-07-18 08:09:00,08:09:03,08:09:54,1647,1684,16520.0,8,16530.0,34,16530.0,16530.0,16520.0,16525.0,13,3,16520,11,16525,16
2016-07-18 08:10:00,08:10:05,08:10:59,1689,1766,16520.0,12,16525.0,17,16525.0,16545.0,16525.0,16545.0,46,41,16540,6,16545,11
2016-07-18 08:11:00,08:11:02,08:11:51,1771,1863,16540.0,6,16545.0,12,16540.0,16540.0,16525.0,16530.0,45,1,16530,10,16535,4
2016-07-18 08:12:00,08:12:37,08:12:59,1885,1893,16535.0,11,16540.0,4,16535.0,16540.0,16535.0,16540.0,3,1,16540,8,16545,33
2016-07-18 08:13:00,08:13:13,08:13:55,1909,1932,16540.0,3,16545.0,52,16540.0,16545.0,16540.0,16545.0,14,12,16540,11,16545,25
2016-07-18 08:14:00,08:14:05,08:14:20,1940,1976,16540.0,19,16545.0,26,16545.0,16555.0,16545.0,16550.0,19,5,16545,9,16550,29
2016-07-18 08:15:00,08:15:05,08:15:29,2007,2032,16550.0,11,16555.0,17,16555.0,16555.0,16555.0,16555.0,28,6,16550,11,16555,2
2016-07-18 08:16:00,08:16:02,08:16:55,2039,2065,16555.0,9,16560.0,72,16555.0,16560.0,16555.0,16555.0,18,-14,16550,12,16555,3
2016-07-18 08:17:00,08:17:34,08:17:54,2087,2097,16550.0,20,16555.0,4,16555.0,16555.0,16555.0,16555.0,5,3,16555,3,16560,41
2016-07-18 08:18:00,08:18:15,08:18:55,2104,2125,16555.0,7,16560.0,54,16560.0,16560.0,16555.0,16555.0,10,-2,16555,3,16560,61
2016-07-18 08:19:00,08:19:16,08:19:53,2134,2162,16555.0,5,16560.0,56,16555.0,16555.0,16555.0,16555.0,10,-10,16555,2,16555,2
2016-07-18 08:20:00,08:20:00,08:20:17,2166,2176,16555.0,3,16560.0,65,16555.0,16555.0,16555.0,16555.0,7,1,16555,6,16560,63
2016-07-18 08:21:00,08:21:16,08:21:16,2189,2189,16555.0,6,16560.0,66,16555.0,16555.0,16555.0,16555.0,1,-1,16555,5,16560,67
2016-07-18 08:22:00,08:22:13,08:22:54,2192,2200,16555.0,5,16560.0,67,16555.0,16560.0,16555.0,16560.0,4,2,16555,78,16560,55
2016-07-18 08:23:00,08:23:03,08:23:52,2202,2229,16555.0,6,16560.0,55,16560.0,16560.0,16555.0,16555.0,15,-11,16550,6,16555,89
2016-07-18 08:24:00,08:24:05,08:24:38,2233,2248,16550.0,8,16555.0,89,16555.0,16555.0,16550.0,16550.0,16,0,16545,20,16550,73
2016-07-18 08:25:00,08:25:20,08:25:54,2254,2304,16545.0,24,16550.0,72,16550.0,16555.0,16545.0,16550.0,75,-19,16545,10,16550,72
2016-07-18 08:26:00,08:26:01,08:26:01,2307,2308,16545.0,10,16550.0,72,16545.0,16545.0,16545.0,16545.0,2,-2,16545,12,16550,73
2016-07-18 08:27:00,08:27:20,08:27:20,2314,2314,16545.0,12,16550.0,74,16550.0,16550.0,16550.0,16550.0,4,4,16545,10,16550,70
2016-07-18 08:28:00,08:28:20,08:28:57,2319,2333,16545.0,10,16550.0,70,16550.0,16550.0,16545.0,16545.0,14,8,16540,11,16545,7
2016-07-18 08:29:00,08:29:25,08:29:57,2339,2377,16540.0,12,16545.0,12,16545.0,16545.0,16525.0,16525.0,30,-28,16525,5,16530,15
2016-07-18 08:30:00,08:30:20,08:30:26,2381,2409,16525.0,5,16530.0,14,16530.0,16530.0,16530.0,16530.0,35,-7,16530,13,16535,3
2016-07-18 08:31:00,08:31:24,08:31:52,2430,2459,16535.0,2,16540.0,5,16535.0,16535.0,16515.0,16515.0,27,-21,16515,17,16525,3
2016-07-18 08:32:00,08:32:02,08:32:53,2463,2490,16515.0,15,16520.0,9,16520.0,16530.0,16520.0,16530.0,23,17,16525,4,16530,2
2016-07-18 08:33:00,08:33:07,08:33:54,2495,2549,16525.0,4,16530.0,2,16530.0,16530.0,16515.0,16525.0,34,8,16520,6,16525,1
2016-07-18 08:34:00,08:34:04,08:34:30,2552,2562,16520.0,6,16525.0,1,16525.0,16530.0,16520.0,16525.0,7,5,16520,5,16525,1
2016-07-18 08:35:00,08:35:20,08:35:49,2566,2575,16520.0,5,16525.0,3,16525.0,16525.0,16525.0,16525.0,3,3,16520,7,16530,17
2016-07-18 08:36:00,08:36:13,08:36:39,2583,2595,16520.0,9,16525.0,1,16525.0,16530.0,16525.0,16530.0,3,1,16530,4,16535,14
2016-07-18 08:37:00,08:37:20,08:37:52,2607,2640,16530.0,5,16535.0,3,16535.0,16555.0,16535.0,16555.0,15,15,16545,2,16555,6
2016-07-18 08:38:00,08:38:00,08:38:10,2642,2650,16550.0,3,16555.0,6,16555.0,16555.0,16545.0,16545.0,8,-6,16540,3,16545,3
2016-07-18 08:39:00,08:39:21,08:39:40,2657,2667,16540.0,1,16545.0,3,16540.0,16540.0,16535.0,16535.0,3,1,16535,6,16540,13
2016-07-18 08:40:00,08:40:20,08:40:23,2681,2689,16530.0,4,16535.0,3,16535.0,16535.0,16535.0,16535.0,8,8,16530,4,16535,4
2016-07-18 08:41:00,08:41:05,08:41:20,2692,2698,16530.0,5,16535.0,3,16535.0,16535.0,16535.0,16535.0,4,4,16530,4,16540,35
2016-07-18 08:42:00,08:42:20,08:42:42,2701,2714,16530.0,5,16535.0,2,16535.0,16535.0,16535.0,16535.0,8,8,16530,4,16540,39
2016-07-18 08:43:00,08:43:20,08:43:35,2724,2754,16530.0,5,16535.0,1,16535.0,16535.0,16530.0,16535.0,20,12,16535,3,16535,1
2016-07-18 08:44:00,08:44:08,08:44:40,2769,2785,16535.0,3,16540.0,20,16540.0,16540.0,16535.0,16540.0,8,0,16535,7,16540,14
2016-07-18 08:45:00,08:45:08,08:45:45,2794,2807,16535.0,7,16540.0,15,16540.0,16540.0,16535.0,16535.0,5,3,16535,10,16540,12
2016-07-18 08:46:00,08:46:01,08:46:56,2811,2841,16535.0,10,16540.0,11,16540.0,16550.0,16540.0,16550.0,13,13,16545,6,16550,1
2016-07-18 08:47:00,08:47:09,08:47:50,2845,2891,16545.0,6,16550.0,3,16550.0,16555.0,16540.0,16555.0,23,-13,16550,7,16555,24
2016-07-18 08:48:00,08:48:09,08:48:52,2897,2931,16550.0,7,16555.0,19,16555.0,16560.0,16555.0,16555.0,13,5,16555,2,16560,39
2016-07-18 08:49:00,08:49:05,08:49:43,2935,2957,16555.0,2,16560.0,52,16560.0,16560.0,16555.0,16555.0,8,6,16550,7,16555,1
2016-07-18 08:50:00,08:50:12,08:50:42,2967,2985,16550.0,6,16555.0,2,16555.0,16560.0,16555.0,16560.0,7,7,16555,10,16560,30
2016-07-18 08:51:00,08:51:10,08:51:19,2990,2998,16555.0,4,16560.0,26,16560.0,16560.0,16555.0,16555.0,3,3,16550,10,16555,1
2016-07-18 08:52:00,08:52:00,08:52:00,0,0,0.0,0,0.0,0,16555.0,16555.0,16555.0,16555.0,0,0,0,0,0,0
2016-07-18 08:53:00,08:53:14,08:53:44,3018,3028,16550.0,6,16555.0,6,16550.0,16550.0,16550.0,16550.0,4,0,16550,40,16555,10
2016-07-18 08:54:00,08:54:08,08:54:38,3040,3061,16550.0,40,16555.0,6,16555.0,16555.0,16550.0,16555.0,15,-9,16555,4,16560,25
2016-07-18 08:55:00,08:55:38,08:55:38,3084,3084,16555.0,5,16560.0,28,16560.0,16560.0,16560.0,16560.0,1,1,16555,6,16560,27
2016-07-18 08:56:00,08:56:01,08:56:52,3094,3132,16555.0,5,16560.0,21,16560.0,16560.0,16555.0,16560.0,15,7,16555,6,16560,10
2016-07-18 08:57:00,08:57:08,08:57:46,3134,3170,16555.0,5,16560.0,10,16560.0,16560.0,16560.0,16560.0,14,14,16555,5,16565,50
2016-07-18 08:58:00,08:58:08,08:58:44,3192,3237,16550.0,29,16560.0,27,16560.0,16560.0,16545.0,16545.0,33,-13,16540,8,16550,26
2016-07-18 08:59:00,08:59:36,08:59:46,3261,3287,16540.0,6,16545.0,20,16545.0,16550.0,16545.0,16545.0,20,20,16545,4,16550,18
2016-07-18 09:00:00,09:00:00,09:00:57,3299,3351,16545.0,5,16550.0,10,16550.0,16555.0,16550.0,16555.0,20,17,16555,1,16560,50
2016-07-18 09:01:00,09:01:00,09:01:06,3354,3368,16555.0,1,16560.0,50,16555.0,16560.0,16555.0,16560.0,13,11,16555,7,16560,28
2016-07-18 09:02:00,09:02:44,09:02:47,3381,3405,16555.0,7,16560.0,28,16555.0,16570.0,16555.0,16570.0,26,18,16560,9,16570,38
2016-07-18 09:03:00,09:03:31,09:03:43,3433,3449,16555.0,7,16560.0,2,16560.0,16560.0,16560.0,16560.0,5,-1,16560,7,16565,35
2016-07-18 09:04:00,09:04:16,09:04:58,3454,3457,16560.0,4,16565.0,33,16560.0,16565.0,16560.0,16565.0,2,0,16560,6,16565,29
2016-07-18 09:05:00,09:05:06,09:05:39,3461,3489,16560.0,6,16565.0,30,16565.0,16570.0,16565.0,16565.0,11,-3,16560,3,16565,7
2016-07-18 09:06:00,09:06:06,09:06:51,3500,3533,16555.0,4,16560.0,2,16560.0,16560.0,16550.0,16555.0,14,-2,16550,101,16555,12
2016-07-18 09:07:00,09:07:23,09:07:30,3562,3586,16550.0,6,16555.0,35,16550.0,16550.0,16540.0,16540.0,14,-14,16540,9,16545,2
2016-07-18 09:08:00,09:08:18,09:08:58,3599,3796,16545.0,4,16550.0,33,16545.0,16595.0,16545.0,16595.0,201,78,16585,8,16595,4
2016-07-18 09:09:00,09:09:00,09:09:48,3797,3851,16585.0,7,16595.0,3,16595.0,16595.0,16575.0,16575.0,17,-7,16575,4,16580,5
2016-07-18 09:10:00,09:10:21,09:10:21,3863,3863,16575.0,5,16580.0,4,16575.0,16575.0,16575.0,16575.0,1,-1,16570,4,16580,5
2016-07-18 09:11:00,09:11:03,09:11:53,3867,3919,16575.0,5,16580.0,5,16575.0,16575.0,16565.0,16570.0,44,-28,16570,1,16575,9
2016-07-18 09:12:00,09:12:00,09:12:30,3922,3931,16570.0,1,16575.0,9,16570.0,16570.0,16565.0,16565.0,5,-5,16560,62,16565,2
2016-07-18 09:13:00,09:13:01,09:13:35,3936,3938,16560.0,62,16565.0,2,16565.0,16565.0,16560.0,16560.0,2,0,16560,61,16565,1
2016-07-18 09:14:00,09:14:09,09:14:09,3941,3941,16560.0,61,16565.0,1,16565.0,16565.0,16565.0,16565.0,1,1,16560,59,16570,42
2016-07-18 09:15:00,09:15:00,09:15:00,0,0,0.0,0,0.0,0,16565.0,16565.0,16565.0,16565.0,0,0,0,0,0,0
2016-07-18 09:16:00,09:16:29,09:16:29,3985,3985,16560.0,62,16565.0,1,16565.0,16565.0,16565.0,16565.0,1,1,16560,63,16570,46
2016-07-18 09:17:00,09:17:48,09:17:48,4016,4016,16565.0,3,16570.0,49,16565.0,16565.0,16565.0,16565.0,1,-1,16565,2,16570,48
2016-07-18 09:18:00,09:18:00,09:18:00,0,0,0.0,0,0.0,0,16565.0,16565.0,16565.0,16565.0,0,0,0,0,0,0
2016-07-18 09:19:00,09:19:16,09:19:17,4035,4050,16565.0,5,16570.0,42,16570.0,16580.0,16570.0,16575.0,33,29,16575,6,16580,2
2016-07-18 09:20:00,09:20:26,09:20:58,4093,4117,16580.0,2,16585.0,4,16580.0,16585.0,16575.0,16575.0,13,-10,16570,4,16575,4
2016-07-18 09:21:00,09:21:02,09:21:15,4122,4143,16570.0,8,16575.0,4,16570.0,16585.0,16570.0,16585.0,28,22,16585,4,16590,3
2016-07-18 09:22:00,09:22:06,09:22:16,4168,4179,16585.0,2,16590.0,6,16585.0,16585.0,16580.0,16580.0,2,-2,16580,3,16585,4
2016-07-18 09:23:00,09:23:46,09:23:54,4190,4197,16580.0,1,16585.0,4,16580.0,16580.0,16570.0,16570.0,2,-2,16570,3,16575,5
2016-07-18 09:24:00,09:24:48,09:24:48,4202,4204,16570.0,4,16575.0,4,16570.0,16570.0,16570.0,16570.0,4,-4,16570,3,16575,5
2016-07-18 09:25:00,09:25:00,09:25:00,0,0,0.0,0,0.0,0,16570.0,16570.0,16570.0,16570.0,0,0,0,0,0,0
2016-07-18 09:26:00,09:26:33,09:26:33,4220,4220,16570.0,5,16575.0,4,16575.0,16575.0,16575.0,16575.0,2,2,16575,4,16575,2
2016-07-18 09:27:00,09:27:12,09:27:39,4239,4269,16580.0,3,16585.0,3,16580.0,16590.0,16580.0,16585.0,11,-3,16580,5,16590,5
2016-07-18 09:28:00,09:28:00,09:28:49,4274,4280,16580.0,3,16585.0,3,16585.0,16585.0,16585.0,16585.0,3,3,16575,9,16585,2
2016-07-18 09:29:00,09:29:34,09:29:34,4285,4287,16575.0,9,16585.0,2,16580.0,16580.0,16580.0,16580.0,2,1,16580,3,16580,1
2016-07-18 09:30:00,09:30:05,09:30:42,4302,4345,16580.0,1,16585.0,5,16580.0,16580.0,16570.0,16570.0,11,0,16565,28,16575,40
2016-07-18 09:31:00,09:31:19,09:31:36,4357,4359,16570.0,4,16575.0,3,16575.0,16575.0,16575.0,16575.0,4,4,16575,3,16575,7
2016-07-18 09:32:00,09:32:53,09:32:58,4377,4383,16575.0,6,16580.0,1,16580.0,16585.0,16580.0,16585.0,2,2,16580,5,16585,18
2016-07-18 09:33:00,09:33:04,09:33:51,4388,4454,16580.0,6,16585.0,17,16585.0,16600.0,16585.0,16600.0,44,34,16595,4,16600,3
2016-07-18 09:34:00,09:34:04,09:34:45,4462,4586,16595.0,5,16600.0,11,16595.0,16605.0,16580.0,16585.0,110,4,16580,19,16585,2
2016-07-18 09:35:00,09:35:09,09:35:45,4608,4646,16585.0,16,16590.0,4,16585.0,16585.0,16585.0,16585.0,32,-8,16585,3,16590,7
2016-07-18 09:36:00,09:36:13,09:36:52,4657,4697,16585.0,3,16590.0,24,16585.0,16585.0,16575.0,16575.0,25,-19,16575,6,16580,10
2016-07-18 09:37:00,09:37:06,09:37:55,4712,4766,16575.0,3,16580.0,3,16575.0,16575.0,16570.0,16570.0,30,-20,16570,19,16575,32
2016-07-18 09:38:00,09:38:25,09:38:43,4786,4806,16570.0,24,16575.0,26,16575.0,16575.0,16570.0,16570.0,3,-1,16570,20,16575,26
2016-07-18 09:39:00,09:39:07,09:39:37,4822,4851,16570.0,20,16575.0,27,16570.0,16570.0,16565.0,16570.0,19,-17,16565,12,16570,3
2016-07-18 09:40:00,09:40:02,09:40:53,4867,4900,16565.0,11,16570.0,2,16570.0,16570.0,16570.0,16570.0,38,28,16565,16,16570,1
2016-07-18 09:41:00,09:41:21,09:41:21,4919,4930,16565.0,15,16570.0,2,16565.0,16565.0,16565.0,16565.0,18,-18,16560,55,16570,8
2016-07-18 09:42:00,09:42:00,09:42:00,0,0,0.0,0,0.0,0,16565.0,16565.0,16565.0,16565.0,0,0,0,0,0,0
2016-07-18 09:43:00,09:43:00,09:43:41,4959,4992,16565.0,10,16570.0,3,16570.0,16580.0,16570.0,16570.0,21,13,16570,2,16575,4
2016-07-18 09:44:00,09:44:00,09:44:00,0,0,0.0,0,0.0,0,16570.0,16570.0,16570.0,16570.0,0,0,0,0,0,0
2016-07-18 09:45:00,09:45:11,09:45:59,4994,5020,16570.0,2,16575.0,3,16570.0,16570.0,16565.0,16570.0,14,-12,16570,2,16575,11
2016-07-18 09:46:00,09:46:05,09:46:53,5024,5058,16570.0,2,16575.0,6,16575.0,16575.0,16565.0,16565.0,12,10,16565,3,16570,2
2016-07-18 09:47:00,09:47:00,09:47:00,0,0,0.0,0,0.0,0,16565.0,16565.0,16565.0,16565.0,0,0,0,0,0,0
2016-07-18 09:48:00,09:48:00,09:48:00,0,0,0.0,0,0.0,0,16565.0,16565.0,16565.0,16565.0,0,0,0,0,0,0
2016-07-18 09:49:00,09:49:06,09:49:08,5088,5092,16565.0,5,16570.0,4,16570.0,16570.0,16570.0,16570.0,2,2,16570,2,16575,2
2016-07-18 09:50:00,09:50:16,09:50:47,5108,5118,16570.0,2,16575.0,2,16570.0,16570.0,16565.0,16565.0,5,-5,16560,52,16570,4
2016-07-18 09:51:00,09:51:00,09:51:00,0,0,0.0,0,0.0,0,16565.0,16565.0,16565.0,16565.0,0,0,0,0,0,0
2016-07-18 09:52:00,09:52:00,09:52:29,5155,5158,16565.0,2,16570.0,5,16565.0,16565.0,16565.0,16565.0,2,-2,16560,58,16570,4
2016-07-18 09:53:00,09:53:00,09:53:00,0,0,0.0,0,0.0,0,16565.0,16565.0,16565.0,16565.0,0,0,0,0,0,0
2016-07-18 09:54:00,09:54:00,09:54:00,0,0,0.0,0,0.0,0,16565.0,16565.0,16565.0,16565.0,0,0,0,0,0,0
2016-07-18 09:55:00,09:55:22,09:55:22,5193,5195,16560.0,36,16565.0,3,16560.0,16560.0,16560.0,16560.0,5,-5,16560,28,16565,7
2016-07-18 09:56:00,09:56:22,09:56:36,5213,5245,16560.0,28,16565.0,11,16560.0,16560.0,16550.0,16550.0,41,-41,16545,31,16550,9
2016-07-18 09:57:00,09:57:20,09:57:56,5275,5294,16550.0,2,16555.0,4,16555.0,16555.0,16540.0,16540.0,23,-17,16540,10,16545,2
2016-07-18 09:58:00,09:58:20,09:58:20,5300,5300,16540.0,15,16545.0,2,16545.0,16545.0,16545.0,16545.0,2,2,16540,16,16550,7
2016-07-18 09:59:00,09:59:24,09:59:24,5319,5319,16545.0,3,16550.0,7,16545.0,16545.0,16545.0,16545.0,1,-1,16540,14,16545,6
2016-07-18 10:00:00,10:00:18,10:00:49,5350,5370,16545.0,2,16550.0,5,16545.0,16550.0,16545.0,16545.0,7,1,16545,2,16550,31
2016-07-18 10:01:00,10:01:06,10:01:20,5381,5395,16540.0,12,16545.0,1,16545.0,16550.0,16545.0,16550.0,9,9,16545,5,16550,18
2016-07-18 10:02:00,10:02:08,10:02:48,5409,5451,16545.0,8,16550.0,16,16550.0,16550.0,16550.0,16550.0,22,16,16545,6,16550,2
2016-07-18 10:03:00,10:03:20,10:03:22,5464,5470,16545.0,10,16550.0,2,16550.0,16550.0,16550.0,16550.0,5,2,16550,3,16555,50
2016-07-18 10:04:00,10:04:20,10:04:37,5492,5507,16550.0,3,16555.0,29,16555.0,16555.0,16550.0,16550.0,6,4,16545,13,16550,6
2016-07-18 10:05:00,10:05:52,10:05:52,5534,5537,16545.0,9,16550.0,8,16545.0,16545.0,16545.0,16545.0,5,-5,16540,28,16545,3
2016-07-18 10:06:00,10:06:20,10:06:20,5557,5561,16545.0,5,16550.0,8,16545.0,16550.0,16545.0,16550.0,3,-1,16545,2,16550,38
2016-07-18 10:07:00,10:07:14,10:07:20,5587,5589,16545.0,3,16550.0,34,16550.0,16550.0,16550.0,16550.0,4,4,16545,6,16550,28
2016-07-18 10:08:00,10:08:00,10:08:00,0,0,0.0,0,0.0,0,16550.0,16550.0,16550.0,16550.0,0,0,0,0,0,0
2016-07-18 10:09:00,10:09:20,10:09:20,5613,5613,16540.0,22,16545.0,1,16545.0,16545.0,16545.0,16545.0,1,1,16545,2,16550,28
2016-07-18 10:10:00,10:10:00,10:10:00,0,0,0.0,0,0.0,0,16545.0,16545.0,16545.0,16545.0,0,0,0,0,0,0
2016-07-18 10:11:00,10:11:28,10:11:28,5657,5658,16545.0,4,16550.0,16,16545.0,16545.0,16545.0,16545.0,2,-2,16540,24,16550,15
2016-07-18 10:12:00,10:12:00,10:12:00,0,0,0.0,0,0.0,0,16545.0,16545.0,16545.0,16545.0,0,0,0,0,0,0
2016-07-18 10:13:00,10:13:04,10:13:56,5684,5706,16545.0,5,16550.0,6,16545.0,16545.0,16545.0,16545.0,8,-8,16540,18,16545,4
2016-07-18 10:14:00,10:14:00,10:14:20,5712,5731,16545.0,2,16550.0,37,16545.0,16550.0,16545.0,16550.0,4,2,16545,6,16550,31
2016-07-18 10:15:00,10:15:27,10:15:41,5749,5761,16545.0,6,16550.0,8,16545.0,16550.0,16545.0,16550.0,6,-4,16545,14,16550,2
2016-07-18 10:16:00,10:16:14,10:16:20,5769,5780,16545.0,14,16550.0,2,16550.0,16555.0,16550.0,16555.0,4,4,16550,8,16555,22
2016-07-18 10:17:00,10:17:12,10:17:21,5793,5831,16550.0,9,16555.0,13,16555.0,16565.0,16555.0,16560.0,27,27,16555,9,16560,4
2016-07-18 10:18:00,10:18:01,10:18:59,5854,5893,16555.0,1,16560.0,8,16555.0,16555.0,16550.0,16555.0,3,1,16555,2,16560,7
2016-07-18 10:19:00,10:19:38,10:19:38,5910,5910,16560.0,2,16565.0,6,16560.0,16560.0,16560.0,16560.0,1,-1,16560,1,16560,2
2016-07-18 10:20:00,10:20:43,10:20:43,5932,5933,16560.0,6,16565.0,2,16565.0,16565.0,16565.0,16565.0,2,2,16565,2,16570,6
2016-07-18 10:21:00,10:21:47,10:21:47,5946,5947,16560.0,4,16565.0,4,16565.0,16565.0,16565.0,16565.0,2,2,16560,3,16565,3
2016-07-18 10:22:00,10:22:00,10:22:00,0,0,0.0,0,0.0,0,16565.0,16565.0,16565.0,16565.0,0,0,0,0,0,0
2016-07-18 10:23:00,10:23:23,10:23:41,5959,5968,16560.0,3,16565.0,3,16565.0,16565.0,16565.0,16565.0,3,3,16555,7,16565,9
2016-07-18 10:24:00,10:24:24,10:24:24,5975,5976,16555.0,5,16560.0,6,16560.0,16560.0,16560.0,16560.0,2,2,16560,3,16565,4
2016-07-18 10:25:00,10:25:03,10:25:08,5983,5988,16560.0,2,16565.0,4,16560.0,16560.0,16560.0,16560.0,5,-5,16560,3,16565,4
2016-07-18 10:26:00,10:26:08,10:26:08,5995,5995,16560.0,4,16565.0,6,16560.0,16560.0,16560.0,16560.0,1,-1,16560,3,16565,7
2016-07-18 10:27:00,10:27:03,10:27:03,6007,6007,16560.0,1,16565.0,8,16560.0,16560.0,16560.0,16560.0,1,-1,16555,7,16560,6
2016-07-18 10:28:00,10:28:02,10:28:15,6020,6034,16555.0,2,16560.0,14,16555.0,16560.0,16555.0,16560.0,6,2,16555,9,16565,5
2016-07-18 10:29:00,10:29:50,10:29:50,6046,6046,16555.0,3,16560.0,4,16555.0,16555.0,16555.0,16555.0,1,-1,16555,2,16565,8
2016-07-18 10:30:00,10:30:35,10:30:35,6056,6056,16565.0,2,16570.0,6,16570.0,16570.0,16570.0,16570.0,1,1,16560,9,16570,5
2016-07-18 10:31:00,10:31:26,10:31:26,6063,6065,16560.0,3,16565.0,4,16565.0,16565.0,16565.0,16565.0,4,4,16555,6,16565,9
2016-07-18 10:32:00,10:32:00,10:32:00,0,0,0.0,0,0.0,0,16565.0,16565.0,16565.0,16565.0,0,0,0,0,0,0
2016-07-18 10:33:00,10:33:00,10:33:00,0,0,0.0,0,0.0,0,16565.0,16565.0,16565.0,16565.0,0,0,0,0,0,0
2016-07-18 10:34:00,10:34:00,10:34:00,0,0,0.0,0,0.0,0,16565.0,16565.0,16565.0,16565.0,0,0,0,0,0,0
2016-07-18 10:35:00,10:35:13,10:35:13,6097,6097,16560.0,3,16565.0,6,16560.0,16560.0,16560.0,16560.0,1,-1,16555,6,16560,4
2016-07-18 10:36:00,10:36:32,10:36:32,6109,6109,16560.0,3,16565.0,6,16565.0,16565.0,16565.0,16565.0,1,1,16560,4,16565,7
2016-07-18 10:37:00,10:37:00,10:37:00,0,0,0.0,0,0.0,0,16565.0,16565.0,16565.0,16565.0,0,0,0,0,0,0
2016-07-18 10:38:00,10:38:02,10:38:23,6117,6124,16560.0,4,16565.0,6,16560.0,16560.0,16555.0,16555.0,3,-3,16555,11,16560,5
2016-07-18 10:39:00,10:39:09,10:39:26,6131,6134,16555.0,11,16560.0,5,16555.0,16555.0,16555.0,16555.0,2,-2,16555,5,16560,7
2016-07-18 10:40:00,10:40:41,10:40:52,6152,6158,16555.0,1,16560.0,26,16555.0,16555.0,16555.0,16555.0,2,0,16555,1,16560,25
2016-07-18 10:41:00,10:41:45,10:41:45,6172,6173,16555.0,4,16560.0,5,16555.0,16555.0,16555.0,16555.0,4,-4,16550,42,16560,31
2016-07-18 10:42:00,10:42:01,10:42:01,6179,6179,16550.0,41,16555.0,2,16555.0,16555.0,16555.0,16555.0,1,1,16550,39,16555,1
2016-07-18 10:43:00,10:43:54,10:43:54,6201,6201,16550.0,1,16555.0,5,16555.0,16555.0,16555.0,16555.0,1,1,16550,4,16555,6
2016-07-18 10:44:00,10:44:28,10:44:39,6209,6215,16550.0,4,16555.0,5,16555.0,16555.0,16550.0,16550.0,3,-1,16545,12,16550,1
2016-07-18 10:45:00,10:45:20,10:45:20,6219,6220,16545.0,12,16550.0,2,16550.0,16550.0,16550.0,16550.0,2,2,16545,13,16555,6
2016-07-18 10:46:00,10:46:00,10:46:00,0,0,0.0,0,0.0,0,16550.0,16550.0,16550.0,16550.0,0,0,0,0,0,0
2016-07-18 10:47:00,10:47:32,10:47:32,6239,6241,16545.0,4,16550.0,8,16545.0,16545.0,16545.0,16545.0,3,-3,16540,26,16545,4
2016-07-18 10:48:00,10:48:08,10:48:20,6269,6275,16540.0,15,16545.0,8,16540.0,16545.0,16540.0,16545.0,6,4,16540,7,16545,4
2016-07-18 10:49:00,10:49:09,10:49:37,6285,6307,16540.0,7,16545.0,11,16540.0,16545.0,16540.0,16540.0,12,-8,16540,4,16545,6
2016-07-18 10:50:00,10:50:07,10:50:07,6315,6315,16540.0,4,16545.0,6,16540.0,16540.0,16540.0,16540.0,2,-2,16535,20,16545,34
2016-07-18 10:51:00,10:51:20,10:51:57,6329,6340,16535.0,10,16540.0,4,16540.0,16540.0,16535.0,16535.0,8,-4,16530,33,16540,38
2016-07-18 10:52:00,10:52:31,10:52:55,6365,6388,16530.0,25,16535.0,5,16535.0,16535.0,16530.0,16535.0,27,-25,16530,15,16540,35
2016-07-18 10:53:00,10:53:00,10:53:00,0,0,0.0,0,0.0,0,16535.0,16535.0,16535.0,16535.0,0,0,0,0,0,0
2016-07-18 10:54:00,10:54:05,10:54:21,6406,6420,16535.0,3,16540.0,6,16535.0,16540.0,16535.0,16540.0,10,4,16535,5,16540,11
2016-07-18 10:55:00,10:55:55,10:55:55,6455,6458,16530.0,16,16535.0,5,16535.0,16535.0,16535.0,16535.0,5,5,16535,2,16540,46
2016-07-18 10:56:00,10:56:00,10:56:00,0,0,0.0,0,0.0,0,16535.0,16535.0,16535.0,16535.0,0,0,0,0,0,0
2016-07-18 10:57:00,10:57:02,10:57:02,6469,6469,16535.0,3,16540.0,27,16535.0,16535.0,16535.0,16535.0,1,-1,16530,15,16535,4
2016-07-18 10:58:00,10:58:00,10:58:20,6477,6532,16530.0,13,16535.0,5,16535.0,16545.0,16535.0,16545.0,55,53,16540,7,16545,2
2016-07-18 10:59:00,10:59:32,10:59:32,6548,6548,16540.0,2,16545.0,21,16540.0,16540.0,16540.0,16540.0,1,-1,16535,11,16545,22
2016-07-18 11:00:00,11:00:00,11:00:00,0,0,0.0,0,0.0,0,16540.0,16540.0,16540.0,16540.0,0,0,0,0,0,0
2016-07-18 11:01:00,11:01:00,11:01:00,0,0,0.0,0,0.0,0,16540.0,16540.0,16540.0,16540.0,0,0,0,0,0,0
2016-07-18 11:02:00,11:02:26,11:02:52,6590,6594,16535.0,5,16540.0,7,16535.0,16535.0,16535.0,16535.0,2,-2,16535,6,16540,3
2016-07-18 11:03:00,11:03:02,11:03:07,6600,6602,16535.0,8,16540.0,1,16540.0,16540.0,16540.0,16540.0,3,2,16540,2,16545,30
2016-07-18 11:04:00,11:04:27,11:04:27,6614,6615,16540.0,8,16545.0,19,16540.0,16540.0,16540.0,16540.0,2,-2,16535,13,16545,44
2016-07-18 11:05:00,11:05:00,11:05:00,0,0,0.0,0,0.0,0,16540.0,16540.0,16540.0,16540.0,0,0,0,0,0,0
2016-07-18 11:06:00,11:06:06,11:06:33,6636,6649,16535.0,10,16540.0,3,16540.0,16545.0,16540.0,16545.0,4,4,16540,7,16545,1
2016-07-18 11:07:00,11:07:00,11:07:00,0,0,0.0,0,0.0,0,16545.0,16545.0,16545.0,16545.0,0,0,0,0,0,0
2016-07-18 11:08:00,11:08:26,11:08:32,6670,6677,16545.0,12,16550.0,10,16550.0,16550.0,16550.0,16550.0,6,6,16545,12,16550,4
2016-07-18 11:09:00,11:09:00,11:09:00,0,0,0.0,0,0.0,0,16550.0,16550.0,16550.0,16550.0,0,0,0,0,0,0
2016-07-18 11:10:00,11:10:56,11:10:56,6692,6694,16545.0,3,16550.0,11,16545.0,16545.0,16545.0,16545.0,3,-3,16540,10,16545,2
2016-07-18 11:11:00,11:11:06,11:11:24,6701,6711,16540.0,7,16545.0,3,16540.0,16540.0,16540.0,16540.0,6,-6,16540,5,16545,3
2016-07-18 11:12:00,11:12:00,11:12:00,0,0,0.0,0,0.0,0,16540.0,16540.0,16540.0,16540.0,0,0,0,0,0,0
2016-07-18 11:13:00,11:13:12,11:13:12,6730,6730,16535.0,1,16540.0,7,16535.0,16535.0,16535.0,16535.0,1,-1,16530,15,16540,4
2016-07-18 11:14:00,11:14:07,11:14:44,6754,6765,16540.0,12,16545.0,1,16545.0,16545.0,16545.0,16545.0,3,-1,16540,12,16545,2
2016-07-18 11:15:00,11:15:10,11:15:31,6780,6809,16545.0,12,16550.0,29,16550.0,16555.0,16550.0,16555.0,29,29,16555,4,16555,3
2016-07-18 11:16:00,11:16:40,11:16:40,6821,6822,16555.0,2,16560.0,28,16555.0,16555.0,16555.0,16555.0,2,-2,16550,18,16555,2
2016-07-18 11:17:00,11:17:03,11:17:03,6830,6830,16550.0,8,16555.0,5,16550.0,16550.0,16550.0,16550.0,1,-1,16550,6,16555,7
2016-07-18 11:18:00,11:18:00,11:18:00,0,0,0.0,0,0.0,0,16550.0,16550.0,16550.0,16550.0,0,0,0,0,0,0
2016-07-18 11:19:00,11:19:01,11:19:51,6862,6898,16555.0,6,16560.0,4,16555.0,16560.0,16555.0,16555.0,7,1,16555,7,16560,3
2016-07-18 11:20:00,11:20:40,11:20:43,6922,6929,16550.0,8,16555.0,3,16550.0,16550.0,16550.0,16550.0,4,-4,16550,2,16555,5
2016-07-18 11:21:00,11:21:30,11:21:36,6936,6951,16550.0,7,16555.0,5,16555.0,16555.0,16555.0,16555.0,7,3,16555,5,16560,4
2016-07-18 11:22:00,11:22:22,11:22:49,6963,6976,16555.0,5,16560.0,5,16555.0,16560.0,16555.0,16555.0,8,-6,16555,4,16560,4
2016-07-18 11:23:00,11:23:00,11:23:00,0,0,0.0,0,0.0,0,16555.0,16555.0,16555.0,16555.0,0,0,0,0,0,0
2016-07-18 11:24:00,11:24:04,11:24:09,6988,7000,16555.0,5,16560.0,4,16555.0,16555.0,16555.0,16555.0,8,-8,16555,1,16560,5
2016-07-18 11:25:00,11:25:05,11:25:06,7009,7015,16555.0,4,16560.0,5,16555.0,16555.0,16550.0,16550.0,6,-6,16550,10,16560,5
2016-07-18 11:26:00,11:26:05,11:26:46,7022,7053,16555.0,2,16560.0,6,16555.0,16555.0,16550.0,16555.0,5,-2,16555,1,16560,12
2016-07-18 11:27:00,11:27:00,11:27:00,0,0,0.0,0,0.0,0,16555.0,16555.0,16555.0,16555.0,0,0,0,0,0,0
2016-07-18 11:28:00,11:28:14,11:28:47,7084,7118,16550.0,6,16555.0,6,16550.0,16550.0,16535.0,16535.0,17,-17,16535,3,16540,10
2016-07-18 11:29:00,11:29:00,11:29:00,0,0,0.0,0,0.0,0,16535.0,16535.0,16535.0,16535.0,0,0,0,0,0,0
2016-07-18 11:30:00,11:30:20,11:30:20,7132,7132,16535.0,6,16540.0,10,16535.0,16535.0,16535.0,16535.0,1,-1,16535,4,16540,9
2016-07-18 11:31:00,11:31:39,11:31:48,7141,7148,16535.0,8,16540.0,9,16540.0,16540.0,16535.0,16535.0,5,-3,16535,4,16540,7
2016-07-18 11:32:00,11:32:00,11:32:00,0,0,0.0,0,0.0,0,16535.0,16535.0,16535.0,16535.0,0,0,0,0,0,0
2016-07-18 11:33:00,11:33:14,11:33:37,7167,7175,16535.0,1,16540.0,10,16535.0,16535.0,16530.0,16530.0,3,-3,16530,23,16540,11
2016-07-18 11:34:00,11:34:00,11:34:00,0,0,0.0,0,0.0,0,16530.0,16530.0,16530.0,16530.0,0,0,0,0,0,0
2016-07-18 11:35:00,11:35:53,11:35:53,7194,7194,16535.0,14,16540.0,10,16535.0,16535.0,16535.0,16535.0,1,-1,16535,13,16540,11
2016-07-18 11:36:00,11:36:25,11:36:31,7199,7202,16535.0,13,16540.0,8,16535.0,16535.0,16535.0,16535.0,2,-2,16535,11,16540,8
2016-07-18 11:37:00,11:37:00,11:37:00,0,0,0.0,0,0.0,0,16535.0,16535.0,16535.0,16535.0,0,0,0,0,0,0
2016-07-18 11:38:00,11:38:00,11:38:00,0,0,0.0,0,0.0,0,16535.0,16535.0,16535.0,16535.0,0,0,0,0,0,0
2016-07-18 11:39:00,11:39:58,11:39:58,7224,7224,16535.0,12,16540.0,8,16540.0,16540.0,16540.0,16540.0,1,1,16535,14,16540,7
2016-07-18 11:40:00,11:40:53,11:40:56,7229,7239,16535.0,12,16540.0,9,16535.0,16535.0,16530.0,16530.0,11,-11,16530,30,16540,17
2016-07-18 11:41:00,11:41:11,11:41:50,7253,7291,16530.0,16,16535.0,8,16530.0,16535.0,16530.0,16530.0,16,-10,16530,15,16535,7
2016-07-18 11:42:00,11:42:00,11:42:00,0,0,0.0,0,0.0,0,16530.0,16530.0,16530.0,16530.0,0,0,0,0,0,0
2016-07-18 11:43:00,11:43:00,11:43:00,0,0,0.0,0,0.0,0,16530.0,16530.0,16530.0,16530.0,0,0,0,0,0,0
2016-07-18 11:44:00,11:44:00,11:44:00,0,0,0.0,0,0.0,0,16530.0,16530.0,16530.0,16530.0,0,0,0,0,0,0
2016-07-18 11:45:00,11:45:00,11:45:00,0,0,0.0,0,0.0,0,16530.0,16530.0,16530.0,16530.0,0,0,0,0,0,0
2016-07-18 11:46:00,11:46:19,11:46:58,7315,7367,16530.0,42,16535.0,15,16530.0,16530.0,16525.0,16525.0,51,-51,16525,105,16530,19
2016-07-18 11:47:00,11:47:02,11:47:42,7371,7398,16525.0,105,16530.0,21,16525.0,16530.0,16525.0,16530.0,18,-6,16530,2,16535,3
2016-07-18 11:48:00,11:48:00,11:48:00,0,0,0.0,0,0.0,0,16530.0,16530.0,16530.0,16530.0,0,0,0,0,0,0
2016-07-18 11:49:00,11:49:37,11:49:38,7407,7410,16525.0,113,16530.0,2,16530.0,16530.0,16530.0,16530.0,3,1,16530,9,16535,3
2016-07-18 11:50:00,11:50:00,11:50:00,0,0,0.0,0,0.0,0,16530.0,16530.0,16530.0,16530.0,0,0,0,0,0,0
2016-07-18 11:51:00,11:51:12,11:51:12,7441,7441,16535.0,1,16540.0,14,16535.0,16535.0,16535.0,16535.0,1,-1,16530,27,16540,16
2016-07-18 11:52:00,11:52:00,11:52:00,0,0,0.0,0,0.0,0,16535.0,16535.0,16535.0,16535.0,0,0,0,0,0,0
2016-07-18 11:53:00,11:53:45,11:53:45,7473,7473,16530.0,24,16535.0,5,16535.0,16535.0,16535.0,16535.0,1,1,16530,27,16535,4
2016-07-18 11:54:00,11:54:09,11:54:50,7479,7491,16530.0,30,16535.0,1,16535.0,16535.0,16535.0,16535.0,4,4,16535,2,16540,13
2016-07-18 11:55:00,11:55:14,11:55:14,7497,7497,16535.0,2,16540.0,11,16535.0,16535.0,16535.0,16535.0,1,-1,16535,1,16540,12
2016-07-18 11:56:00,11:56:00,11:56:00,0,0,0.0,0,0.0,0,16535.0,16535.0,16535.0,16535.0,0,0,0,0,0,0
2016-07-18 11:57:00,11:57:51,11:57:51,7511,7511,16535.0,3,16540.0,10,16540.0,16540.0,16540.0,16540.0,1,1,16535,2,16540,11
2016-07-18 11:58:00,11:58:07,11:58:16,7516,7518,16535.0,3,16540.0,12,16535.0,16535.0,16535.0,16535.0,2,-2,16530,43,16535,1
2016-07-18 11:59:00,11:59:00,11:59:00,0,0,0.0,0,0.0,0,16535.0,16535.0,16535.0,16535.0,0,0,0,0,0,0
2016-07-18 12:00:00,12:00:02,12:00:29,7537,7564,16535.0,1,16540.0,14,16535.0,16535.0,16530.0,16530.0,19,-19,16525,112,16535,17
2016-07-18 12:01:00,12:01:00,12:01:00,0,0,0.0,0,0.0,0,16530.0,16530.0,16530.0,16530.0,0,0,0,0,0,0
2016-07-18 12:02:00,12:02:21,12:02:21,7574,7574,16525.0,112,16530.0,4,16530.0,16530.0,16530.0,16530.0,1,1,16530,2,16535,13
2016-07-18 12:03:00,12:03:00,12:03:00,0,0,0.0,0,0.0,0,16530.0,16530.0,16530.0,16530.0,0,0,0,0,0,0
2016-07-18 12:04:00,12:04:00,12:04:00,7584,7584,16530.0,2,16535.0,6,16530.0,16530.0,16530.0,16530.0,1,-1,16530,1,16535,5
2016-07-18 12:05:00,12:05:50,12:05:50,7597,7613,16525.0,95,16530.0,31,16525.0,16525.0,16525.0,16525.0,95,-95,16520,10,16525,8
2016-07-18 12:06:00,12:06:00,12:06:53,7616,7642,16520.0,10,16525.0,8,16525.0,16525.0,16520.0,16520.0,15,-5,16520,5,16525,9
2016-07-18 12:07:00,12:07:08,12:07:52,7650,7666,16520.0,8,16525.0,7,16525.0,16525.0,16525.0,16525.0,2,2,16525,4,16525,6
2016-07-18 12:08:00,12:08:07,12:08:57,7668,7689,16520.0,5,16525.0,6,16525.0,16525.0,16520.0,16520.0,5,-1,16515,7,16520,10
2016-07-18 12:09:00,12:09:20,12:09:28,7698,7700,16520.0,4,16525.0,6,16525.0,16525.0,16520.0,16520.0,2,0,16520,3,16525,6
2016-07-18 12:10:00,12:10:00,12:10:00,0,0,0.0,0,0.0,0,16520.0,16520.0,16520.0,16520.0,0,0,0,0,0,0
2016-07-18 12:11:00,12:11:08,12:11:59,7717,7733,16520.0,2,16525.0,39,16520.0,16520.0,16515.0,16515.0,5,-5,16515,4,16520,6
2016-07-18 12:12:00,12:12:28,12:12:28,7739,7739,16515.0,2,16520.0,44,16515.0,16515.0,16515.0,16515.0,2,-2,16510,33,16520,41
2016-07-18 12:13:00,12:13:19,12:13:39,7746,7752,16515.0,69,16520.0,42,16515.0,16515.0,16515.0,16515.0,4,-4,16515,66,16520,45
2016-07-18 12:14:00,12:14:52,12:14:52,7759,7768,16515.0,69,16520.0,29,16520.0,16520.0,16520.0,16520.0,29,29,16520,6,16525,43
2016-07-18 12:15:00,12:15:00,12:15:00,0,0,0.0,0,0.0,0,16520.0,16520.0,16520.0,16520.0,0,0,0,0,0,0
2016-07-18 12:16:00,12:16:00,12:16:00,0,0,0.0,0,0.0,0,16520.0,16520.0,16520.0,16520.0,0,0,0,0,0,0
2016-07-18 12:17:00,12:17:39,12:17:50,7799,7801,16515.0,67,16520.0,8,16520.0,16520.0,16520.0,16520.0,2,2,16520,3,16525,47
2016-07-18 12:18:00,12:18:00,12:18:00,0,0,0.0,0,0.0,0,16520.0,16520.0,16520.0,16520.0,0,0,0,0,0,0
2016-07-18 12:19:00,12:19:29,12:19:29,7813,7813,16515.0,72,16520.0,14,16515.0,16515.0,16515.0,16515.0,1,-1,16515,71,16520,13
2016-07-18 12:20:00,12:20:32,12:20:35,7824,7827,16515.0,71,16520.0,13,16515.0,16515.0,16515.0,16515.0,2,-2,16515,69,16520,13
2016-07-18 12:21:00,12:21:31,12:21:59,7830,7836,16515.0,69,16520.0,13,16515.0,16515.0,16515.0,16515.0,14,-14,16515,55,16520,1
2016-07-18 12:22:00,12:22:13,12:22:25,7840,7845,16515.0,56,16520.0,1,16520.0,16520.0,16515.0,16515.0,2,0,16515,54,16520,4
2016-07-18 12:23:00,12:23:00,12:23:00,0,0,0.0,0,0.0,0,16515.0,16515.0,16515.0,16515.0,0,0,0,0,0,0
2016-07-18 12:24:00,12:24:00,12:24:00,0,0,0.0,0,0.0,0,16515.0,16515.0,16515.0,16515.0,0,0,0,0,0,0
2016-07-18 12:25:00,12:25:22,12:25:51,7868,7890,16520.0,2,16525.0,46,16520.0,16520.0,16515.0,16520.0,11,-9,16520,3,16525,49
2016-07-18 12:26:00,12:26:41,12:26:41,7892,7892,16520.0,3,16525.0,43,16520.0,16520.0,16520.0,16520.0,1,-1,16520,2,16525,49
2016-07-18 12:27:00,12:27:00,12:27:00,0,0,0.0,0,0.0,0,16520.0,16520.0,16520.0,16520.0,0,0,0,0,0,0
2016-07-18 12:28:00,12:28:00,12:28:00,0,0,0.0,0,0.0,0,16520.0,16520.0,16520.0,16520.0,0,0,0,0,0,0
2016-07-18 12:29:00,12:29:00,12:29:00,0,0,0.0,0,0.0,0,16520.0,16520.0,16520.0,16520.0,0,0,0,0,0,0
2016-07-18 12:30:00,12:30:00,12:30:00,0,0,0.0,0,0.0,0,16520.0,16520.0,16520.0,16520.0,0,0,0,0,0,0
2016-07-18 12:31:00,12:31:00,12:31:00,0,0,0.0,0,0.0,0,16520.0,16520.0,16520.0,16520.0,0,0,0,0,0,0
2016-07-18 12:32:00,12:32:00,12:32:00,0,0,0.0,0,0.0,0,16520.0,16520.0,16520.0,16520.0,0,0,0,0,0,0
2016-07-18 12:33:00,12:33:39,12:33:55,7925,7938,16520.0,3,16525.0,55,16520.0,16520.0,16515.0,16515.0,18,-18,16515,53,16520,16
2016-07-18 12:34:00,12:34:05,12:34:17,7940,7943,16515.0,53,16520.0,10,16515.0,16515.0,16515.0,16515.0,7,-7,16515,23,16520,17
2016-07-18 12:35:00,12:35:20,12:35:20,7955,7955,16515.0,21,16520.0,19,16515.0,16515.0,16515.0,16515.0,2,-2,16515,15,16520,20
2016-07-18 12:36:00,12:36:13,12:36:13,7961,7962,16515.0,9,16520.0,22,16515.0,16515.0,16515.0,16515.0,2,-2,16515,7,16520,20
2016-07-18 12:37:00,12:37:00,12:37:00,7975,7975,16515.0,21,16520.0,9,16520.0,16520.0,16520.0,16520.0,2,2,16515,31,16520,6
2016-07-18 12:38:00,12:38:01,12:38:53,7989,8006,16515.0,32,16520.0,7,16515.0,16520.0,16515.0,16520.0,5,1,16515,18,16520,9
2016-07-18 12:39:00,12:39:20,12:39:34,8008,8015,16515.0,11,16520.0,9,16520.0,16520.0,16520.0,16520.0,3,3,16515,11,16520,5
2016-07-18 12:40:00,12:40:00,12:40:00,0,0,0.0,0,0.0,0,16520.0,16520.0,16520.0,16520.0,0,0,0,0,0,0
2016-07-18 12:41:00,12:41:35,12:41:35,8043,8043,16520.0,1,16525.0,47,16520.0,16520.0,16520.0,16520.0,1,-1,16515,18,16520,4
2016-07-18 12:42:00,12:42:00,12:42:00,0,0,0.0,0,0.0,0,16520.0,16520.0,16520.0,16520.0,0,0,0,0,0,0
2016-07-18 12:43:00,12:43:00,12:43:00,0,0,0.0,0,0.0,0,16520.0,16520.0,16520.0,16520.0,0,0,0,0,0,0
2016-07-18 12:44:00,12:44:00,12:44:00,0,0,0.0,0,0.0,0,16520.0,16520.0,16520.0,16520.0,0,0,0,0,0,0
2016-07-18 12:45:00,12:45:00,12:45:00,0,0,0.0,0,0.0,0,16520.0,16520.0,16520.0,16520.0,0,0,0,0,0,0
2016-07-18 12:46:00,12:46:12,12:46:12,8059,8059,16515.0,9,16520.0,6,16520.0,16520.0,16520.0,16520.0,1,1,16515,7,16520,5
2016-07-18 12:47:00,12:47:00,12:47:00,0,0,0.0,0,0.0,0,16520.0,16520.0,16520.0,16520.0,0,0,0,0,0,0
2016-07-18 12:48:00,12:48:00,12:48:00,0,0,0.0,0,0.0,0,16520.0,16520.0,16520.0,16520.0,0,0,0,0,0,0
2016-07-18 12:49:00,12:49:00,12:49:00,0,0,0.0,0,0.0,0,16520.0,16520.0,16520.0,16520.0,0,0,0,0,0,0
2016-07-18 12:50:00,12:50:30,12:50:32,8071,8073,16515.0,7,16520.0,7,16515.0,16515.0,16515.0,16515.0,2,-2,16515,5,16520,6
2016-07-18 12:51:00,12:51:00,12:51:00,0,0,0.0,0,0.0,0,16515.0,16515.0,16515.0,16515.0,0,0,0,0,0,0
2016-07-18 12:52:00,12:52:00,12:52:00,0,0,0.0,0,0.0,0,16515.0,16515.0,16515.0,16515.0,0,0,0,0,0,0
2016-07-18 12:53:00,12:53:00,12:53:00,0,0,0.0,0,0.0,0,16515.0,16515.0,16515.0,16515.0,0,0,0,0,0,0
2016-07-18 12:54:00,12:54:00,12:54:00,0,0,0.0,0,0.0,0,16515.0,16515.0,16515.0,16515.0,0,0,0,0,0,0
2016-07-18 12:55:00,12:55:00,12:55:00,0,0,0.0,0,0.0,0,16515.0,16515.0,16515.0,16515.0,0,0,0,0,0,0
2016-07-18 12:56:00,12:56:00,12:56:00,0,0,0.0,0,0.0,0,16515.0,16515.0,16515.0,16515.0,0,0,0,0,0,0
2016-07-18 12:57:00,12:57:00,12:57:00,0,0,0.0,0,0.0,0,16515.0,16515.0,16515.0,16515.0,0,0,0,0,0,0
2016-07-18 12:58:00,12:58:55,12:58:55,8095,8097,16515.0,19,16520.0,5,16520.0,16520.0,16520.0,16520.0,4,4,16520,2,16525,65
2016-07-18 12:59:00,12:59:00,12:59:00,0,0,0.0,0,0.0,0,16520.0,16520.0,16520.0,16520.0,0,0,0,0,0,0
2016-07-18 13:00:00,13:00:00,13:00:32,8117,8147,16520.0,5,16525.0,47,16520.0,16520.0,16515.0,16515.0,27,-7,16510,40,16515,5
2016-07-18 13:01:00,13:01:20,13:01:20,8165,8166,16515.0,6,16520.0,6,16520.0,16520.0,16520.0,16520.0,2,2,16515,7,16520,4
2016-07-18 13:02:00,13:02:20,13:02:20,8172,8173,16515.0,9,16520.0,3,16520.0,16520.0,16520.0,16520.0,2,2,16515,11,16520,1
2016-07-18 13:03:00,13:03:00,13:03:00,0,0,0.0,0,0.0,0,16520.0,16520.0,16520.0,16520.0,0,0,0,0,0,0
2016-07-18 13:04:00,13:04:11,13:04:11,8180,8180,16515.0,11,16520.0,1,16520.0,16520.0,16520.0,16520.0,1,1,16515,17,16525,49
2016-07-18 13:05:00,13:05:00,13:05:00,0,0,0.0,0,0.0,0,16520.0,16520.0,16520.0,16520.0,0,0,0,0,0,0
2016-07-18 13:06:00,13:06:10,13:06:10,8192,8196,16520.0,9,16525.0,63,16520.0,16520.0,16520.0,16520.0,13,-13,16515,8,16520,2
2016-07-18 13:07:00,13:07:00,13:07:00,0,0,0.0,0,0.0,0,16520.0,16520.0,16520.0,16520.0,0,0,0,0,0,0
2016-07-18 13:08:00,13:08:02,13:08:51,8212,8234,16515.0,3,16520.0,14,16515.0,16515.0,16510.0,16510.0,14,-14,16510,10,16515,6
2016-07-18 13:09:00,13:09:00,13:09:00,0,0,0.0,0,0.0,0,16510.0,16510.0,16510.0,16510.0,0,0,0,0,0,0
2016-07-18 13:10:00,13:10:20,13:10:53,8248,8277,16510.0,7,16515.0,7,16515.0,16515.0,16505.0,16510.0,9,-5,16510,3,16510,2
2016-07-18 13:11:00,13:11:02,13:11:02,8279,8281,16510.0,3,16515.0,15,16510.0,16510.0,16510.0,16510.0,3,-3,16505,17,16510,2
2016-07-18 13:12:00,13:12:14,13:12:14,8289,8289,16510.0,3,16515.0,14,16510.0,16510.0,16510.0,16510.0,1,-1,16510,4,16515,9
2016-07-18 13:13:00,13:13:00,13:13:00,8305,8306,16510.0,10,16515.0,2,16515.0,16515.0,16515.0,16515.0,2,2,16510,14,16520,24
2016-07-18 13:14:00,13:14:33,13:14:54,8321,8365,16515.0,16,16520.0,13,16520.0,16535.0,16520.0,16530.0,62,57,16530,2,16535,25
2016-07-18 13:15:00,13:15:05,13:15:57,8370,8418,16530.0,10,16535.0,27,16535.0,16545.0,16535.0,16545.0,15,15,16545,2,16550,44
2016-07-18 13:16:00,13:16:05,13:16:57,8422,8473,16545.0,10,16550.0,44,16545.0,16545.0,16540.0,16545.0,20,-14,16545,3,16550,34
2016-07-18 13:17:00,13:17:14,13:17:54,8482,8502,16545.0,8,16550.0,26,16545.0,16545.0,16545.0,16545.0,6,-4,16540,13,16545,1
2016-07-18 13:18:00,13:18:50,13:18:54,8509,8511,16540.0,15,16545.0,2,16545.0,16545.0,16545.0,16545.0,2,2,16540,13,16550,53
2016-07-18 13:19:00,13:19:22,13:19:49,8520,8527,16540.0,11,16545.0,3,16545.0,16545.0,16540.0,16540.0,6,-4,16535,40,16540,5
2016-07-18 13:20:00,13:20:29,13:20:52,8539,8548,16535.0,33,16540.0,2,16540.0,16540.0,16540.0,16540.0,3,3,16535,53,16545,34
2016-07-18 13:21:00,13:21:11,13:21:55,8564,8576,16540.0,10,16545.0,30,16545.0,16545.0,16545.0,16545.0,3,3,16540,3,16545,27
2016-07-18 13:22:00,13:22:16,13:22:59,8583,8593,16540.0,10,16545.0,38,16545.0,16545.0,16545.0,16545.0,3,3,16540,9,16545,36
2016-07-18 13:23:00,13:23:16,13:23:42,8597,8629,16540.0,9,16545.0,37,16540.0,16540.0,16530.0,16530.0,21,-17,16525,29,16535,45
2016-07-18 13:24:00,13:24:12,13:24:32,8652,8662,16530.0,7,16535.0,32,16530.0,16535.0,16530.0,16535.0,2,0,16530,10,16540,31
2016-07-18 13:25:00,13:25:36,13:25:59,8690,8695,16535.0,19,16540.0,16,16540.0,16545.0,16540.0,16545.0,2,2,16540,13,16545,37
2016-07-18 13:26:00,13:26:39,13:26:40,8707,8711,16540.0,12,16545.0,34,16545.0,16545.0,16540.0,16540.0,3,1,16540,12,16545,32
2016-07-18 13:27:00,13:27:18,13:27:39,8723,8726,16540.0,10,16545.0,41,16545.0,16545.0,16545.0,16545.0,2,2,16540,12,16545,31
2016-07-18 13:28:00,13:28:01,13:28:44,8734,8741,16540.0,19,16545.0,29,16545.0,16545.0,16545.0,16545.0,3,3,16540,16,16545,28
2016-07-18 13:29:00,13:29:06,13:29:49,8746,8759,16540.0,16,16545.0,28,16545.0,16545.0,16545.0,16545.0,3,3,16540,23,16545,22
2016-07-18 13:30:00,13:30:03,13:30:32,8766,8803,16540.0,21,16545.0,23,16545.0,16555.0,16545.0,16555.0,25,23,16545,20,16555,54
2016-07-18 13:31:00,13:31:15,13:31:58,8824,8837,16545.0,7,16550.0,7,16550.0,16550.0,16550.0,16550.0,3,3,16545,9,16550,9
2016-07-18 13:32:00,13:32:20,13:32:41,8841,8845,16545.0,16,16550.0,9,16550.0,16550.0,16550.0,16550.0,3,3,16550,10,16550,11
2016-07-18 13:33:00,13:33:02,13:33:25,8849,8866,16545.0,17,16550.0,8,16550.0,16555.0,16550.0,16555.0,10,10,16550,23,16555,16
2016-07-18 13:34:00,13:34:03,13:34:04,8882,8885,16550.0,9,16555.0,38,16550.0,16550.0,16550.0,16550.0,11,-11,16545,10,16550,6
2016-07-18 13:35:00,13:35:29,13:35:48,8911,8915,16550.0,6,16555.0,37,16550.0,16550.0,16550.0,16550.0,2,-2,16550,4,16555,38
2016-07-18 13:36:00,13:36:30,13:36:30,8921,8921,16550.0,7,16555.0,37,16550.0,16550.0,16550.0,16550.0,1,-1,16550,5,16555,38
2016-07-18 13:37:00,13:37:22,13:37:22,8930,8931,16550.0,6,16555.0,37,16555.0,16555.0,16555.0,16555.0,2,2,16550,10,16555,33
2016-07-18 13:38:00,13:38:05,13:38:45,8942,8963,16550.0,27,16555.0,22,16555.0,16560.0,16555.0,16555.0,10,-6,16545,27,16555,50
2016-07-18 13:39:00,13:39:02,13:39:06,8979,8984,16550.0,13,16555.0,43,16555.0,16555.0,16555.0,16555.0,2,2,16550,17,16555,39
2016-07-18 13:40:00,13:40:46,13:40:46,9015,9016,16550.0,30,16555.0,7,16555.0,16555.0,16555.0,16555.0,7,7,16555,6,16560,15
2016-07-18 13:41:00,13:41:05,13:41:50,9035,9057,16555.0,7,16560.0,28,16555.0,16560.0,16555.0,16560.0,16,14,16555,11,16560,3
2016-07-18 13:42:00,13:42:02,13:42:52,9069,9095,16555.0,2,16560.0,38,16555.0,16560.0,16555.0,16560.0,4,0,16555,2,16560,37
2016-07-18 13:43:00,13:43:00,13:43:00,0,0,0.0,0,0.0,0,16560.0,16560.0,16560.0,16560.0,0,0,0,0,0,0
2016-07-18 13:44:00,13:44:09,13:44:51,9111,9124,16555.0,14,16560.0,35,16560.0,16560.0,16555.0,16555.0,4,0,16555,14,16560,6
2016-07-18 13:45:00,13:45:01,13:45:23,9131,9138,16555.0,13,16560.0,2,16560.0,16560.0,16560.0,16560.0,4,0,16560,8,16565,53
2016-07-18 13:46:00,13:46:42,13:46:58,9151,9162,16560.0,8,16565.0,53,16565.0,16565.0,16560.0,16560.0,10,-6,16560,2,16565,37
2016-07-18 13:47:00,13:47:43,13:47:43,9178,9178,16560.0,2,16565.0,52,16560.0,16560.0,16560.0,16560.0,1,-1,16560,1,16565,53
2016-07-18 13:48:00,13:48:29,13:48:53,9184,9196,16560.0,2,16565.0,48,16560.0,16560.0,16555.0,16555.0,3,-3,16555,6,16560,8
2016-07-18 13:49:00,13:49:12,13:49:12,9203,9206,16555.0,3,16560.0,52,16555.0,16560.0,16555.0,16560.0,4,-2,16555,2,16560,53
2016-07-18 13:50:00,13:50:03,13:50:54,9228,9258,16555.0,23,16560.0,3,16560.0,16560.0,16560.0,16560.0,11,-2,16560,10,16565,30
2016-07-18 13:51:00,13:51:00,13:51:00,0,0,0.0,0,0.0,0,16560.0,16560.0,16560.0,16560.0,0,0,0,0,0,0
2016-07-18 13:52:00,13:52:18,13:52:18,9282,9286,16560.0,23,16565.0,32,16560.0,16560.0,16560.0,16560.0,7,-7,16555,29,16560,2
2016-07-18 13:53:00,13:53:29,13:53:29,9312,9312,16555.0,19,16560.0,19,16555.0,16555.0,16555.0,16555.0,2,-2,16555,6,16560,29
2016-07-18 13:54:00,13:54:48,13:54:52,9336,9345,16555.0,20,16560.0,39,16560.0,16560.0,16560.0,16560.0,5,1,16560,6,16565,20
2016-07-18 13:55:00,13:55:00,13:55:35,9348,9391,16560.0,8,16565.0,41,16565.0,16575.0,16565.0,16575.0,23,15,16570,7,16575,28
2016-07-18 13:56:00,13:56:58,13:56:58,9423,9424,16570.0,13,16575.0,28,16575.0,16575.0,16575.0,16575.0,2,2,16570,23,16575,15
2016-07-18 13:57:00,13:57:01,13:57:57,9427,9476,16570.0,23,16575.0,15,16575.0,16580.0,16565.0,16565.0,35,3,16565,48,16570,11
2016-07-18 13:58:00,13:58:18,13:58:19,9483,9485,16565.0,53,16570.0,5,16570.0,16570.0,16570.0,16570.0,3,3,16565,44,16570,2
2016-07-18 13:59:00,13:59:31,13:59:59,9499,9558,16565.0,43,16570.0,3,16565.0,16565.0,16565.0,16565.0,46,-46,16570,3,16575,46
2016-07-18 14:00:00,14:00:00,14:00:51,9559,9698,16565.0,19,16570.0,17,16570.0,16595.0,16570.0,16585.0,115,87,16580,23,16590,28
2016-07-18 14:01:00,14:01:02,14:01:59,9711,9767,16585.0,1,16590.0,44,16585.0,16585.0,16575.0,16575.0,31,-31,16575,20,16580,47
2016-07-18 14:02:00,14:02:29,14:02:58,9781,9817,16575.0,21,16580.0,41,16580.0,16585.0,16580.0,16580.0,34,30,16575,52,16585,34
2016-07-18 14:03:00,14:03:00,14:03:49,9820,9847,16575.0,37,16585.0,23,16580.0,16580.0,16575.0,16575.0,6,-2,16575,31,16580,15
2016-07-18 14:04:00,14:04:46,14:04:51,9870,9878,16575.0,9,16580.0,33,16575.0,16575.0,16575.0,16575.0,2,-2,16575,16,16580,28
2016-07-18 14:05:00,14:05:08,14:05:55,9891,9931,16575.0,7,16580.0,30,16575.0,16575.0,16575.0,16575.0,22,-8,16570,17,16575,19
2016-07-18 14:06:00,14:06:34,14:06:47,9939,9977,16570.0,16,16575.0,25,16570.0,16570.0,16560.0,16560.0,46,-46,16560,13,16565,16
2016-07-18 14:07:00,14:07:27,14:07:56,10002,10041,16555.0,17,16560.0,14,16560.0,16560.0,16545.0,16550.0,19,-11,16550,2,16555,23
2016-07-18 14:08:00,14:08:11,14:08:43,10053,10082,16550.0,11,16555.0,7,16555.0,16560.0,16555.0,16555.0,12,-4,16555,6,16560,27
2016-07-18 14:09:00,14:09:02,14:09:58,10090,10134,16555.0,6,16560.0,21,16555.0,16560.0,16555.0,16560.0,17,-1,16560,4,16565,10
