,ST,ET,sidx,eidx,bB,bBS,bA,bAS,O,H,L,C,V,OF,eB,eBS,eA,eAS
2016-08-10 08:00:00,08:00:00,08:00:56,1976,2164,16670.0,13,16675.0,24,16675.0,16675.0,16665.0,16675.0,160,-24,16670,23,16675,24
2016-08-10 08:01:00,08:01:01,08:01:57,2173,2463,16670.0,24,16675.0,26,16670.0,16680.0,16670.0,16675.0,372,6,16670,40,16675,39
2016-08-10 08:02:00,08:02:04,08:02:48,2484,2790,16670.0,32,16675.0,78,16670.0,16670.0,16655.0,16660.0,446,74,16655,52,16660,33
2016-08-10 08:03:00,08:03:01,08:03:56,2809,3001,16655.0,50,16660.0,47,16655.0,16660.0,16650.0,16655.0,243,-17,16650,46,16655,27
2016-08-10 08:04:00,08:04:08,08:04:54,3020,3244,16650.0,49,16655.0,77,16650.0,16655.0,16645.0,16650.0,251,23,16650,18,16655,25
2016-08-10 08:05:00,08:05:00,08:05:59,3254,3417,16650.0,35,16655.0,23,16655.0,16660.0,16650.0,16655.0,139,13,16650,57,16655,8
2016-08-10 08:06:00,08:06:00,08:06:47,3420,3611,16650.0,57,16655.0,8,16655.0,16660.0,16650.0,16655.0,167,-35,16655,31,16660,27
2016-08-10 08:07:00,08:07:03,08:07:31,3643,3773,16655.0,27,16660.0,38,16655.0,16660.0,16655.0,16655.0,123,-29,16655,8,16660,29
2016-08-10 08:08:00,08:08:07,08:08:59,3813,4017,16655.0,33,16660.0,35,16655.0,16665.0,16655.0,16665.0,232,44,16665,4,16670,28
2016-08-10 08:09:00,08:09:00,08:09:41,4020,4138,16665.0,4,16670.0,28,16665.0,16665.0,16660.0,16665.0,77,46,16665,14,16670,36
2016-08-10 08:10:00,08:10:10,08:10:54,4184,4344,16665.0,20,16670.0,40,16665.0,16675.0,16665.0,16665.0,142,14,16660,51,16665,19
2016-08-10 08:11:00,08:11:00,08:11:53,4354,4491,16660.0,41,16665.0,26,16665.0,16665.0,16665.0,16665.0,114,0,16660,31,16665,48
2016-08-10 08:12:00,08:12:02,08:12:52,4510,4704,16660.0,27,16665.0,46,16660.0,16665.0,16660.0,16665.0,224,37,16665,3,16670,41
2016-08-10 08:13:00,08:13:03,08:13:53,4719,5413,16665.0,3,16670.0,52,16665.0,16665.0,16640.0,16650.0,797,-284,16650,23,16655,27
2016-08-10 08:14:00,08:14:00,08:14:59,5427,5740,16650.0,16,16655.0,33,16650.0,16650.0,16645.0,16645.0,299,2,16645,17,16650,30
2016-08-10 08:15:00,08:15:00,08:15:41,5744,5917,16645.0,17,16650.0,31,16645.0,16645.0,16635.0,16640.0,227,-114,16635,46,16645,38
2016-08-10 08:16:00,08:16:00,08:16:58,5947,6217,16635.0,30,16640.0,30,16635.0,16645.0,16635.0,16640.0,280,-107,16635,42,16640,23
2016-08-10 08:17:00,08:17:00,08:17:52,6223,6464,16635.0,41,16640.0,30,16635.0,16640.0,16630.0,16640.0,246,-52,16635,54,16645,47
2016-08-10 08:18:00,08:18:14,08:18:56,6484,6740,16635.0,37,16640.0,16,16640.0,16655.0,16640.0,16655.0,280,172,16650,30,16655,20
2016-08-10 08:19:00,08:19:02,08:19:56,6750,6890,16650.0,32,16655.0,36,16655.0,16660.0,16650.0,16655.0,101,25,16655,20,16660,31
2016-08-10 08:20:00,08:20:00,08:20:56,6899,7016,16655.0,22,16660.0,26,16655.0,16655.0,16655.0,16655.0,54,-18,16655,35,16660,27
2016-08-10 08:21:00,08:21:40,08:21:59,7049,7088,16655.0,30,16660.0,50,16655.0,16655.0,16650.0,16650.0,28,-28,16650,40,16655,69
2016-08-10 08:22:00,08:22:05,08:22:50,7096,7292,16650.0,37,16655.0,73,16650.0,16655.0,16650.0,16655.0,173,17,16655,27,16660,35
2016-08-10 08:23:00,08:23:03,08:23:51,7306,7441,16655.0,25,16660.0,38,16655.0,16655.0,16650.0,16655.0,101,-86,16655,13,16660,36
2016-08-10 08:24:00,08:24:00,08:24:50,7460,7592,16655.0,13,16660.0,42,16655.0,16660.0,16655.0,16660.0,94,-32,16655,50,16660,40
2016-08-10 08:25:00,08:25:04,08:25:58,7612,8013,16655.0,41,16660.0,55,16655.0,16665.0,16635.0,16645.0,466,-69,16640,35,16650,34
2016-08-10 08:26:00,08:26:00,08:26:35,8021,8198,16640.0,30,16645.0,17,16645.0,16655.0,16645.0,16655.0,159,79,16650,52,16655,9
2016-08-10 08:27:00,08:27:00,08:27:59,8227,8573,16650.0,43,16655.0,22,16650.0,16655.0,16640.0,16655.0,284,-32,16655,5,16660,47
2016-08-10 08:28:00,08:28:00,08:28:55,8574,8669,16650.0,37,16655.0,1,16655.0,16655.0,16655.0,16655.0,62,-4,16655,9,16660,56
2016-08-10 08:29:00,08:29:00,08:29:57,8677,8756,16655.0,11,16660.0,56,16655.0,16655.0,16650.0,16655.0,41,-31,16655,4,16660,43
2016-08-10 08:30:00,08:30:10,08:30:35,8779,8902,16655.0,17,16660.0,48,16660.0,16660.0,16655.0,16660.0,99,45,16655,39,16665,57
2016-08-10 08:31:00,08:31:18,08:31:41,8946,9009,16660.0,34,16665.0,45,16665.0,16665.0,16665.0,16665.0,45,33,16660,34,16665,17
2016-08-10 08:32:00,08:32:31,08:32:42,9064,9126,16660.0,18,16665.0,37,16665.0,16670.0,16660.0,16670.0,63,25,16665,5,16670,32
2016-08-10 08:33:00,08:33:00,08:33:58,9155,9288,16665.0,20,16670.0,30,16670.0,16680.0,16670.0,16675.0,94,58,16670,33,16675,2
2016-08-10 08:34:00,08:34:01,08:34:30,9295,9353,16670.0,35,16675.0,5,16675.0,16675.0,16675.0,16675.0,34,16,16675,39,16680,34
2016-08-10 08:35:00,08:35:03,08:35:47,9397,9547,16675.0,34,16680.0,30,16675.0,16680.0,16675.0,16680.0,142,-40,16680,23,16685,89
2016-08-10 08:36:00,08:36:01,08:36:59,9557,9774,16680.0,34,16685.0,85,16685.0,16685.0,16680.0,16685.0,348,152,16685,18,16690,36
2016-08-10 08:37:00,08:37:11,08:37:58,9789,9929,16685.0,13,16690.0,36,16685.0,16690.0,16685.0,16685.0,115,-63,16680,94,16690,42
2016-08-10 08:38:00,08:38:18,08:38:55,9948,10034,16680.0,82,16685.0,28,16685.0,16685.0,16680.0,16685.0,107,-45,16680,49,16685,1
2016-08-10 08:39:00,08:39:00,08:39:58,10046,10117,16680.0,47,16685.0,2,16685.0,16690.0,16680.0,16680.0,20,-14,16680,21,16685,38
2016-08-10 08:40:00,08:40:09,08:40:47,10139,10226,16680.0,31,16685.0,36,16680.0,16685.0,16680.0,16685.0,60,8,16685,1,16690,43
2016-08-10 08:41:00,08:41:07,08:41:42,10247,10318,16685.0,3,16690.0,37,16685.0,16685.0,16680.0,16680.0,40,4,16675,45,16685,46
2016-08-10 08:42:00,08:42:11,08:42:35,10347,10400,16675.0,35,16680.0,22,16680.0,16680.0,16675.0,16675.0,34,6,16675,35,16680,23
2016-08-10 08:43:00,08:43:04,08:43:29,10430,10481,16675.0,34,16680.0,30,16675.0,16675.0,16675.0,16675.0,41,-31,16670,42,16675,5
2016-08-10 08:44:00,08:44:08,08:44:55,10527,10637,16670.0,30,16675.0,39,16670.0,16675.0,16670.0,16675.0,78,-32,16670,48,16680,43
2016-08-10 08:45:00,08:45:10,08:45:16,10658,10705,16670.0,37,16675.0,26,16670.0,16670.0,16670.0,16670.0,56,-50,16670,4,16675,40
2016-08-10 08:46:00,08:46:06,08:46:39,10763,10874,16670.0,22,16675.0,39,16670.0,16670.0,16660.0,16660.0,93,-75,16660,43,16670,74
2016-08-10 08:47:00,08:47:00,08:47:56,10894,11065,16665.0,32,16670.0,69,16665.0,16670.0,16665.0,16670.0,237,25,16665,99,16670,3
2016-08-10 08:48:00,08:48:00,08:48:56,11070,11186,16665.0,99,16670.0,2,16670.0,16675.0,16670.0,16670.0,73,19,16665,85,16675,54
2016-08-10 08:49:00,08:49:01,08:49:46,11195,11253,16670.0,4,16675.0,55,16670.0,16675.0,16670.0,16675.0,32,17,16675,19,16680,33
2016-08-10 08:50:00,08:50:05,08:50:40,11283,11351,16675.0,8,16680.0,40,16675.0,16675.0,16670.0,16670.0,27,-7,16670,18,16675,50
2016-08-10 08:51:00,08:51:05,08:51:50,11360,11447,16670.0,16,16675.0,49,16670.0,16675.0,16670.0,16675.0,44,18,16670,42,16675,3
2016-08-10 08:52:00,08:52:03,08:52:33,11469,11521,16670.0,41,16675.0,10,16675.0,16675.0,16675.0,16675.0,18,-2,16675,7,16680,34
2016-08-10 08:53:00,08:53:18,08:53:46,11572,11601,16675.0,4,16680.0,40,16675.0,16675.0,16675.0,16675.0,24,-24,16670,45,16675,8
2016-08-10 08:54:00,08:54:08,08:54:56,11633,11864,16670.0,19,16675.0,37,16670.0,16680.0,16670.0,16675.0,215,-98,16675,18,16680,36
2016-08-10 08:55:00,08:55:02,08:55:59,11880,12049,16675.0,14,16680.0,36,16675.0,16675.0,16665.0,16665.0,171,-121,16660,33,16665,16
2016-08-10 08:56:00,08:56:00,08:56:52,12054,12186,16660.0,34,16665.0,15,16665.0,16675.0,16665.0,16675.0,103,-3,16670,58,16675,9
2016-08-10 08:57:00,08:57:16,08:57:59,12209,12241,16670.0,64,16675.0,15,16675.0,16675.0,16670.0,16670.0,13,9,16670,62,16675,10
2016-08-10 08:58:00,08:58:01,08:58:50,12243,12361,16670.0,62,16675.0,13,16675.0,16675.0,16670.0,16670.0,51,39,16670,56,16675,31
2016-08-10 08:59:00,08:59:01,08:59:46,12381,12485,16670.0,32,16675.0,34,16670.0,16670.0,16665.0,16670.0,87,-11,16665,35,16675,40
2016-08-10 09:00:00,09:00:15,09:00:37,12516,12572,16665.0,34,16670.0,14,16670.0,16670.0,16665.0,16665.0,28,-8,16665,15,16670,46
2016-08-10 09:01:00,09:01:03,09:01:31,12589,12642,16665.0,24,16670.0,44,16665.0,16665.0,16665.0,16665.0,60,2,16665,21,16670,41
2016-08-10 09:02:00,09:02:50,09:02:50,12692,12692,16665.0,68,16670.0,53,16665.0,16665.0,16665.0,16665.0,1,-1,16665,67,16670,51
2016-08-10 09:03:00,09:03:17,09:03:18,12705,12746,16665.0,67,16670.0,54,16665.0,16665.0,16665.0,16665.0,92,-92,16660,47,16665,6
2016-08-10 09:04:00,09:04:00,09:04:31,12790,12935,16660.0,42,16665.0,32,16660.0,16660.0,16655.0,16655.0,140,-36,16655,18,16660,35
2016-08-10 09:05:00,09:05:03,09:05:59,12971,13214,16655.0,25,16660.0,40,16655.0,16660.0,16650.0,16650.0,244,-45,16645,44,16650,9
2016-08-10 09:06:00,09:06:00,09:06:59,13217,13475,16645.0,44,16650.0,9,16650.0,16660.0,16650.0,16650.0,364,-212,16645,55,16655,49
2016-08-10 09:07:00,09:07:00,09:07:52,13476,13627,16650.0,3,16655.0,45,16650.0,16655.0,16650.0,16655.0,118,46,16650,39,16655,13
2016-08-10 09:08:00,09:08:02,09:08:56,13638,13794,16650.0,37,16655.0,22,16655.0,16670.0,16655.0,16665.0,161,85,16660,32,16665,8
2016-08-10 09:09:00,09:09:01,09:09:52,13799,13895,16660.0,37,16665.0,8,16665.0,16670.0,16660.0,16670.0,60,-4,16665,12,16670,32
2016-08-10 09:10:00,09:10:02,09:10:53,13898,14008,16665.0,9,16670.0,28,16670.0,16670.0,16665.0,16665.0,49,3,16665,3,16670,39
2016-08-10 09:11:00,09:11:00,09:11:57,14020,14151,16665.0,10,16670.0,37,16665.0,16675.0,16665.0,16670.0,80,51,16665,38,16670,3
2016-08-10 09:12:00,09:12:00,09:12:54,14156,14276,16665.0,39,16670.0,9,16670.0,16675.0,16670.0,16670.0,79,50,16665,36,16670,5
2016-08-10 09:13:00,09:13:02,09:13:52,14279,14314,16665.0,38,16670.0,4,16670.0,16670.0,16670.0,16670.0,25,25,16665,44,16670,6
2016-08-10 09:14:00,09:14:02,09:14:52,14322,14473,16665.0,41,16670.0,9,16670.0,16675.0,16665.0,16670.0,165,-109,16665,9,16670,24
2016-08-10 09:15:00,09:15:00,09:15:53,14486,14574,16665.0,18,16670.0,17,16665.0,16670.0,16665.0,16665.0,63,-3,16665,9,16670,33
2016-08-10 09:16:00,09:16:02,09:16:55,14583,14691,16665.0,6,16670.0,36,16665.0,16670.0,16665.0,16665.0,53,-5,16660,45,16665,1
2016-08-10 09:17:00,09:17:03,09:17:53,14703,14787,16660.0,42,16665.0,7,16665.0,16670.0,16665.0,16670.0,41,23,16665,20,16670,36
2016-08-10 09:18:00,09:18:01,09:18:56,14795,14936,16665.0,4,16670.0,40,16670.0,16675.0,16670.0,16670.0,101,83,16665,35,16670,33
2016-08-10 09:19:00,09:19:03,09:19:53,14950,15075,16665.0,42,16670.0,15,16670.0,16675.0,16665.0,16670.0,100,34,16665,40,16670,9
2016-08-10 09:20:00,09:20:03,09:20:53,15084,15223,16665.0,41,16670.0,14,16670.0,16680.0,16670.0,16680.0,87,11,16675,3,16680,49
2016-08-10 09:21:00,09:21:03,09:21:53,15234,15301,16675.0,9,16680.0,47,16675.0,16680.0,16675.0,16680.0,45,-16,16675,3,16680,49
2016-08-10 09:22:00,09:22:03,09:22:54,15312,15411,16675.0,15,16680.0,53,16680.0,16680.0,16670.0,16680.0,61,14,16675,3,16680,48
2016-08-10 09:23:00,09:23:04,09:23:54,15421,15465,16675.0,14,16680.0,46,16680.0,16680.0,16675.0,16680.0,13,11,16675,16,16680,38
2016-08-10 09:24:00,09:24:04,09:24:55,15483,15549,16675.0,19,16680.0,37,16680.0,16680.0,16680.0,16680.0,13,13,16675,36,16680,18
2016-08-10 09:25:00,09:25:04,09:25:54,15556,15769,16675.0,36,16680.0,18,16680.0,16680.0,16655.0,16660.0,238,-208,16655,28,16660,32
2016-08-10 09:26:00,09:26:00,09:26:49,15780,15890,16655.0,28,16660.0,38,16655.0,16655.0,16655.0,16655.0,121,-40,16655,18,16660,36
2016-08-10 09:27:00,09:27:10,09:27:55,15899,15985,16655.0,7,16660.0,39,16655.0,16655.0,16650.0,16655.0,106,6,16655,6,16655,10
2016-08-10 09:28:00,09:28:00,09:28:54,15989,16099,16655.0,5,16660.0,41,16655.0,16655.0,16650.0,16650.0,137,-49,16650,26,16655,31
2016-08-10 09:29:00,09:29:36,09:29:59,16147,16181,16650.0,35,16655.0,14,16650.0,16650.0,16650.0,16650.0,16,-16,16650,23,16655,27
2016-08-10 09:30:00,09:30:00,09:30:57,16185,16461,16650.0,27,16655.0,27,16650.0,16655.0,16645.0,16655.0,254,22,16655,4,16660,53
2016-08-10 09:31:00,09:31:00,09:31:56,16467,16591,16655.0,5,16660.0,53,16655.0,16655.0,16650.0,16655.0,67,-43,16650,44,16655,2
2016-08-10 09:32:00,09:32:00,09:32:00,0,0,0.0,0,0.0,0,16655.0,16655.0,16655.0,16655.0,0,0,0,0,0,0
2016-08-10 09:33:00,09:33:12,09:33:54,16640,16731,16655.0,15,16660.0,43,16660.0,16660.0,16655.0,16655.0,72,22,16655,14,16660,34
2016-08-10 09:34:00,09:34:39,09:34:42,16758,16789,16655.0,49,16660.0,21,16660.0,16660.0,16660.0,16660.0,34,34,16655,70,16665,40
2016-08-10 09:35:00,09:35:05,09:35:34,16829,16941,16660.0,30,16665.0,37,16660.0,16660.0,16650.0,16650.0,112,-70,16650,37,16655,10
2016-08-10 09:36:00,09:36:00,09:36:37,16972,17034,16650.0,28,16655.0,17,16650.0,16660.0,16650.0,16660.0,20,16,16655,35,16660,26
2016-08-10 09:37:00,09:37:15,09:37:52,17089,17190,16655.0,40,16660.0,31,16660.0,16665.0,16660.0,16665.0,89,77,16660,33,16665,12
2016-08-10 09:38:00,09:38:19,09:38:50,17210,17304,16660.0,10,16665.0,38,16660.0,16660.0,16655.0,16660.0,64,18,16655,42,16660,2
2016-08-10 09:39:00,09:39:19,09:39:56,17347,17453,16660.0,36,16665.0,22,16665.0,16670.0,16665.0,16670.0,113,97,16670,2,16675,41
2016-08-10 09:40:00,09:40:04,09:40:37,17468,17539,16670.0,11,16675.0,29,16670.0,16670.0,16665.0,16665.0,29,-15,16665,18,16670,34
2016-08-10 09:41:00,09:41:01,09:41:46,17558,17706,16665.0,25,16670.0,28,16665.0,16665.0,16660.0,16660.0,127,-107,16660,34,16665,44
2016-08-10 09:42:00,09:42:08,09:42:57,17718,17827,16660.0,29,16665.0,42,16665.0,16665.0,16665.0,16665.0,72,68,16665,15,16670,35
2016-08-10 09:43:00,09:43:03,09:43:56,17836,18142,16665.0,5,16670.0,38,16665.0,16670.0,16650.0,16655.0,271,-51,16655,1,16660,40
2016-08-10 09:44:00,09:44:00,09:44:58,18154,18349,16655.0,11,16660.0,32,16655.0,16660.0,16655.0,16655.0,95,-24,16650,42,16655,13
2016-08-10 09:45:00,09:45:03,09:45:54,18363,18506,16650.0,43,16655.0,9,16655.0,16655.0,16650.0,16655.0,88,40,16655,7,16660,73
2016-08-10 09:46:00,09:46:15,09:46:50,18544,18620,16650.0,63,16655.0,3,16655.0,16660.0,16650.0,16655.0,65,35,16650,66,16655,6
2016-08-10 09:47:00,09:47:26,09:47:52,18667,18717,16650.0,59,16655.0,19,16650.0,16655.0,16650.0,16655.0,19,7,16655,46,16655,6
2016-08-10 09:48:00,09:48:01,09:48:26,18722,18807,16650.0,62,16655.0,4,16655.0,16660.0,16655.0,16660.0,141,77,16660,8,16665,37
2016-08-10 09:49:00,09:49:20,09:49:46,18833,18958,16660.0,17,16665.0,34,16660.0,16670.0,16655.0,16670.0,157,49,16665,49,16670,2
2016-08-10 09:50:00,09:50:02,09:50:54,18972,19069,16665.0,50,16670.0,12,16670.0,16675.0,16665.0,16670.0,49,38,16665,50,16675,46
2016-08-10 09:51:00,09:51:07,09:51:57,19084,19188,16665.0,52,16670.0,11,16670.0,16675.0,16665.0,16670.0,56,38,16665,57,16670,3
2016-08-10 09:52:00,09:52:02,09:52:54,19197,19364,16665.0,57,16670.0,14,16670.0,16680.0,16670.0,16675.0,168,4,16670,43,16675,5
2016-08-10 09:53:00,09:53:01,09:53:51,19374,19566,16670.0,44,16675.0,17,16670.0,16675.0,16670.0,16675.0,235,0,16670,46,16680,34
2016-08-10 09:54:00,09:54:07,09:54:29,19579,19654,16675.0,17,16680.0,35,16675.0,16675.0,16670.0,16675.0,89,-69,16670,24,16675,27
2016-08-10 09:55:00,09:55:01,09:55:56,19669,19779,16670.0,42,16675.0,32,16675.0,16675.0,16670.0,16670.0,108,-37,16670,4,16675,47
2016-08-10 09:56:00,09:56:01,09:56:19,19787,19816,16670.0,9,16675.0,36,16670.0,16670.0,16670.0,16670.0,19,-7,16670,6,16675,44
2016-08-10 09:57:00,09:57:01,09:57:46,19850,19910,16670.0,38,16675.0,20,16675.0,16675.0,16670.0,16670.0,29,27,16670,43,16675,15
2016-08-10 09:58:00,09:58:01,09:58:01,19931,19934,16670.0,41,16675.0,6,16675.0,16675.0,16675.0,16675.0,6,6,16670,38,16675,7
2016-08-10 09:59:00,09:59:36,09:59:51,20019,20040,16670.0,38,16675.0,13,16670.0,16675.0,16670.0,16675.0,13,3,16670,40,16675,4
2016-08-10 10:00:00,10:00:16,10:00:43,20070,20184,16670.0,45,16675.0,6,16675.0,16675.0,16665.0,16670.0,92,-52,16670,14,16675,39
2016-08-10 10:01:00,10:01:00,10:01:58,20204,20370,16670.0,16,16675.0,32,16670.0,16675.0,16670.0,16675.0,98,32,16675,2,16680,38
2016-08-10 10:02:00,10:02:13,10:02:59,20390,20471,16675.0,6,16680.0,38,16675.0,16675.0,16675.0,16675.0,21,-1,16675,2,16680,39
2016-08-10 10:03:00,10:03:01,10:03:58,20475,20603,16675.0,3,16680.0,39,16675.0,16680.0,16670.0,16680.0,109,57,16675,42,16680,5
2016-08-10 10:04:00,10:04:02,10:04:57,20618,20708,16675.0,30,16680.0,18,16680.0,16680.0,16675.0,16675.0,76,24,16675,24,16680,31
2016-08-10 10:05:00,10:05:03,10:05:56,20716,20816,16675.0,36,16680.0,21,16680.0,16680.0,16680.0,16680.0,88,28,16675,42,16680,5
2016-08-10 10:06:00,10:06:17,10:06:42,20841,20924,16675.0,26,16680.0,39,16675.0,16680.0,16675.0,16680.0,151,55,16675,45,16680,25
2016-08-10 10:07:00,10:07:04,10:07:55,20943,21027,16675.0,45,16680.0,28,16675.0,16680.0,16675.0,16680.0,56,36,16675,46,16685,47
2016-08-10 10:08:00,10:08:00,10:08:54,21037,21121,16675.0,40,16680.0,26,16680.0,16680.0,16680.0,16680.0,45,45,16675,44,16680,27
2016-08-10 10:09:00,10:09:02,10:09:02,21140,21141,16675.0,45,16680.0,33,16675.0,16675.0,16675.0,16675.0,2,-2,16675,43,16680,34
2016-08-10 10:10:00,10:10:00,10:10:00,0,0,0.0,0,0.0,0,16675.0,16675.0,16675.0,16675.0,0,0,0,0,0,0
2016-08-10 10:11:00,10:11:47,10:11:51,21290,21341,16675.0,41,16680.0,42,16675.0,16675.0,16675.0,16675.0,76,-73,16675,21,16680,37
2016-08-10 10:12:00,10:12:01,10:12:59,21358,21501,16675.0,39,16680.0,23,16680.0,16680.0,16675.0,16680.0,168,6,16675,54,16685,95
2016-08-10 10:13:00,10:13:01,10:13:47,21509,21594,16675.0,61,16680.0,1,16680.0,16680.0,16680.0,16680.0,40,16,16675,78,16680,1
2016-08-10 10:14:00,10:14:02,10:14:49,21618,21714,16675.0,76,16680.0,6,16675.0,16685.0,16675.0,16685.0,103,76,16685,4,16685,2
2016-08-10 10:15:00,10:15:23,10:15:56,21751,21835,16685.0,20,16690.0,72,16685.0,16685.0,16685.0,16685.0,66,-31,16685,8,16690,85
2016-08-10 10:16:00,10:16:01,10:16:58,21838,22047,16685.0,7,16690.0,81,16685.0,16695.0,16685.0,16690.0,287,178,16685,51,16690,34
2016-08-10 10:17:00,10:17:15,10:17:47,22059,22113,16685.0,34,16690.0,48,16685.0,16685.0,16685.0,16685.0,57,-46,16685,37,16690,19
2016-08-10 10:18:00,10:18:03,10:18:39,22132,22199,16685.0,30,16690.0,33,16685.0,16685.0,16685.0,16685.0,57,13,16680,76,16690,51
2016-08-10 10:19:00,10:19:43,10:19:47,22244,22280,16685.0,16,16690.0,43,16685.0,16690.0,16685.0,16685.0,59,55,16685,33,16690,24
2016-08-10 10:20:00,10:20:06,10:20:36,22287,22377,16685.0,35,16690.0,16,16685.0,16690.0,16685.0,16685.0,102,-40,16685,38,16690,25
2016-08-10 10:21:00,10:21:00,10:21:00,0,0,0.0,0,0.0,0,16685.0,16685.0,16685.0,16685.0,0,0,0,0,0,0
2016-08-10 10:22:00,10:22:17,10:22:21,22427,22446,16685.0,44,16690.0,18,16690.0,16690.0,16690.0,16690.0,22,22,16685,41,16690,9
2016-08-10 10:23:00,10:23:21,10:23:32,22510,22523,16685.0,49,16690.0,23,16685.0,16685.0,16685.0,16685.0,6,-6,16685,15,16690,78
2016-08-10 10:24:00,10:24:26,10:24:26,22562,22562,16685.0,30,16690.0,74,16685.0,16685.0,16685.0,16685.0,1,-1,16685,29,16690,77
2016-08-10 10:25:00,10:25:05,10:25:05,22600,22633,16685.0,38,16690.0,64,16685.0,16685.0,16685.0,16685.0,54,-54,16685,6,16690,75
2016-08-10 10:26:00,10:26:12,10:26:59,22696,22763,16685.0,46,16690.0,21,16690.0,16690.0,16685.0,16690.0,35,31,16685,62,16695,62
2016-08-10 10:27:00,10:27:00,10:27:32,22766,22836,16685.0,62,16695.0,62,16690.0,16695.0,16690.0,16695.0,70,-32,16695,5,16700,88
2016-08-10 10:28:00,10:28:01,10:28:59,22869,23122,16695.0,30,16700.0,78,16700.0,16705.0,16700.0,16705.0,347,146,16700,70,16705,12
2016-08-10 10:29:00,10:29:20,10:29:50,23144,23276,16700.0,63,16705.0,19,16700.0,16705.0,16700.0,16700.0,148,-108,16700,5,16705,46
2016-08-10 10:30:00,10:30:00,10:30:12,23291,23337,16700.0,20,16705.0,52,16700.0,16705.0,16700.0,16705.0,24,-10,16700,23,16705,44
2016-08-10 10:31:00,10:31:06,10:31:58,23398,23610,16700.0,42,16705.0,37,16705.0,16715.0,16700.0,16700.0,277,173,16700,40,16705,34
2016-08-10 10:32:00,10:32:03,10:32:58,23618,23666,16700.0,17,16705.0,50,16700.0,16700.0,16700.0,16700.0,31,25,16695,72,16705,56
2016-08-10 10:33:00,10:33:00,10:33:59,23674,23743,16695.0,66,16700.0,9,16700.0,16705.0,16700.0,16700.0,54,-38,16700,14,16705,53
2016-08-10 10:34:00,10:34:08,10:34:58,23750,23866,16700.0,5,16705.0,53,16700.0,16705.0,16700.0,16705.0,124,-9,16700,47,16705,9
2016-08-10 10:35:00,10:35:04,10:35:37,23875,23916,16705.0,7,16710.0,79,16705.0,16710.0,16705.0,16710.0,28,14,16705,30,16710,69
2016-08-10 10:36:00,10:36:00,10:36:41,23926,23984,16705.0,3,16710.0,78,16710.0,16715.0,16705.0,16715.0,73,65,16710,2,16715,50
2016-08-10 10:37:00,10:37:05,10:37:47,24001,24131,16710.0,15,16715.0,45,16715.0,16715.0,16710.0,16715.0,136,65,16710,40,16715,14
2016-08-10 10:38:00,10:38:07,10:38:56,24144,24267,16710.0,43,16715.0,5,16715.0,16720.0,16710.0,16710.0,115,17,16710,22,16715,32
2016-08-10 10:39:00,10:39:11,10:39:53,24275,24332,16710.0,26,16715.0,30,16710.0,16710.0,16705.0,16705.0,59,-59,16700,80,16710,47
2016-08-10 10:40:00,10:40:49,10:40:50,24351,24368,16705.0,23,16710.0,40,16705.0,16705.0,16705.0,16705.0,22,-12,16700,77,16710,51
2016-08-10 10:41:00,10:41:22,10:41:50,24384,24429,16705.0,38,16710.0,47,16705.0,16705.0,16705.0,16705.0,47,-41,16700,79,16705,2
2016-08-10 10:42:00,10:42:05,10:42:40,24437,24460,16700.0,82,16710.0,58,16705.0,16705.0,16705.0,16705.0,18,14,16700,83,16710,52
2016-08-10 10:43:00,10:43:15,10:43:15,24473,24474,16700.0,85,16705.0,3,16705.0,16705.0,16705.0,16705.0,3,3,16705,26,16710,46
2016-08-10 10:44:00,10:44:21,10:44:26,24507,24560,16705.0,32,16710.0,48,16710.0,16710.0,16710.0,16710.0,74,74,16705,59,16710,8
2016-08-10 10:45:00,10:45:01,10:45:56,24586,24654,16705.0,60,16710.0,31,16710.0,16715.0,16710.0,16715.0,59,57,16710,61,16715,40
2016-08-10 10:46:00,10:46:00,10:46:41,24656,24701,16710.0,60,16715.0,40,16715.0,16715.0,16710.0,16715.0,29,1,16710,52,16715,36
2016-08-10 10:47:00,10:47:09,10:47:44,24714,24751,16710.0,54,16715.0,41,16710.0,16715.0,16710.0,16715.0,7,3,16710,52,16715,43
2016-08-10 10:48:00,10:48:11,10:48:57,24775,24798,16710.0,56,16715.0,43,16715.0,16715.0,16715.0,16715.0,6,6,16710,55,16715,40
2016-08-10 10:49:00,10:49:03,10:49:37,24800,24824,16710.0,53,16715.0,40,16710.0,16715.0,16710.0,16715.0,9,-3,16710,49,16715,37
2016-08-10 10:50:00,10:50:10,10:50:42,24841,24866,16710.0,52,16715.0,61,16715.0,16715.0,16715.0,16715.0,6,6,16710,49,16715,58
2016-08-10 10:51:00,10:51:03,10:51:54,24872,24903,16710.0,52,16715.0,58,16715.0,16715.0,16715.0,16715.0,6,6,16710,50,16715,56
2016-08-10 10:52:00,10:52:04,10:52:41,24910,24994,16710.0,51,16715.0,55,16715.0,16715.0,16715.0,16715.0,103,79,16710,55,16715,16
2016-08-10 10:53:00,10:53:04,10:53:45,25008,25025,16710.0,47,16715.0,47,16715.0,16715.0,16715.0,16715.0,3,3,16710,48,16715,45
2016-08-10 10:54:00,10:54:04,10:54:38,25029,25043,16710.0,50,16715.0,45,16715.0,16715.0,16710.0,16710.0,4,2,16710,50,16715,45
2016-08-10 10:55:00,10:55:04,10:55:52,25056,25074,16710.0,58,16715.0,37,16710.0,16715.0,16710.0,16715.0,6,4,16710,54,16715,36
2016-08-10 10:56:00,10:56:05,10:56:44,25081,25111,16710.0,57,16715.0,36,16715.0,16715.0,16715.0,16715.0,6,6,16710,52,16715,30
2016-08-10 10:57:00,10:57:02,10:57:58,25124,25240,16710.0,52,16715.0,34,16715.0,16720.0,16710.0,16710.0,133,73,16710,54,16715,10
2016-08-10 10:58:00,10:58:34,10:58:56,25260,25368,16710.0,56,16715.0,19,16715.0,16720.0,16715.0,16720.0,146,128,16715,61,16725,49
2016-08-10 10:59:00,10:59:03,10:59:55,25379,25486,16720.0,27,16725.0,38,16725.0,16725.0,16715.0,16720.0,91,-7,16715,37,16720,28
2016-08-10 11:00:00,11:00:12,11:00:54,25503,25640,16715.0,39,16720.0,33,16720.0,16720.0,16715.0,16720.0,199,53,16720,3,16725,56
2016-08-10 11:01:00,11:01:04,11:01:27,25652,25719,16715.0,72,16720.0,10,16720.0,16720.0,16715.0,16715.0,57,-25,16715,7,16720,62
2016-08-10 11:02:00,11:02:20,11:02:20,25738,25738,16715.0,16,16720.0,42,16715.0,16715.0,16715.0,16715.0,3,-3,16715,19,16720,43
2016-08-10 11:03:00,11:03:20,11:03:31,25749,25784,16715.0,20,16720.0,44,16720.0,16720.0,16720.0,16720.0,46,46,16715,57,16720,20
2016-08-10 11:04:00,11:04:20,11:04:59,25809,25833,16715.0,20,16720.0,55,16715.0,16720.0,16715.0,16720.0,5,1,16715,24,16720,45
2016-08-10 11:05:00,11:05:01,11:05:44,25838,25861,16715.0,26,16720.0,45,16715.0,16720.0,16715.0,16720.0,9,5,16715,45,16720,26
2016-08-10 11:06:00,11:06:39,11:06:41,25893,25896,16715.0,39,16720.0,34,16720.0,16720.0,16720.0,16720.0,2,2,16715,40,16720,31
2016-08-10 11:07:00,11:07:24,11:07:57,25922,26025,16715.0,42,16720.0,36,16720.0,16725.0,16720.0,16725.0,103,97,16720,15,16725,49
2016-08-10 11:08:00,11:08:04,11:08:55,26038,26100,16720.0,21,16725.0,47,16720.0,16725.0,16720.0,16720.0,50,-16,16720,9,16725,49
2016-08-10 11:09:00,11:09:03,11:09:44,26105,26160,16720.0,11,16725.0,49,16720.0,16730.0,16720.0,16730.0,78,48,16725,4,16730,48
2016-08-10 11:10:00,11:10:03,11:10:44,26179,26201,16725.0,35,16730.0,57,16725.0,16730.0,16725.0,16725.0,22,-8,16725,37,16730,29
2016-08-10 11:11:00,11:11:02,11:11:59,26204,26306,16725.0,39,16730.0,99,16730.0,16730.0,16725.0,16730.0,156,150,16725,33,16730,28
2016-08-10 11:12:00,11:12:04,11:12:20,26313,26329,16725.0,33,16730.0,29,16725.0,16730.0,16725.0,16725.0,4,-2,16725,33,16730,37
2016-08-10 11:13:00,11:13:10,11:13:50,26356,26418,16725.0,41,16730.0,36,16730.0,16730.0,16730.0,16730.0,67,56,16725,58,16730,11
2016-08-10 11:14:00,11:14:02,11:14:02,26427,26435,16725.0,54,16730.0,14,16730.0,16730.0,16730.0,16730.0,13,13,16730,39,16735,51
2016-08-10 11:15:00,11:15:04,11:15:57,26471,26574,16730.0,63,16735.0,51,16735.0,16735.0,16725.0,16725.0,124,-47,16725,20,16730,35
2016-08-10 11:16:00,11:16:03,11:16:45,26582,26640,16725.0,16,16730.0,39,16725.0,16730.0,16725.0,16725.0,63,31,16725,12,16730,44
2016-08-10 11:17:00,11:17:24,11:17:42,26645,26683,16725.0,12,16730.0,44,16725.0,16725.0,16720.0,16725.0,23,7,16720,45,16725,6
2016-08-10 11:18:00,11:18:30,11:18:30,26701,26701,16720.0,45,16725.0,12,16720.0,16720.0,16720.0,16720.0,1,-1,16720,15,16725,33
2016-08-10 11:19:00,11:19:13,11:19:44,26713,26744,16720.0,16,16725.0,65,16720.0,16720.0,16720.0,16720.0,7,-7,16720,31,16725,35
2016-08-10 11:20:00,11:20:52,11:20:52,26790,26790,16720.0,53,16725.0,27,16720.0,16720.0,16720.0,16720.0,1,-1,16720,65,16725,28
2016-08-10 11:21:00,11:21:08,11:21:40,26798,26871,16720.0,66,16725.0,29,16720.0,16725.0,16720.0,16725.0,78,28,16720,60,16725,18
2016-08-10 11:22:00,11:22:00,11:22:00,0,0,0.0,0,0.0,0,16725.0,16725.0,16725.0,16725.0,0,0,0,0,0,0
2016-08-10 11:23:00,11:23:17,11:23:17,26921,26936,16720.0,48,16725.0,33,16720.0,16720.0,16720.0,16720.0,47,-47,16720,9,16725,43
2016-08-10 11:24:00,11:24:17,11:24:50,26959,27039,16720.0,36,16725.0,19,16725.0,16725.0,16725.0,16725.0,69,31,16720,51,16725,9
2016-08-10 11:25:00,11:25:08,11:25:08,27054,27054,16720.0,52,16725.0,27,16720.0,16720.0,16720.0,16720.0,1,-1,16720,51,16725,25
2016-08-10 11:26:00,11:26:12,11:26:56,27094,27164,16720.0,33,16725.0,39,16720.0,16720.0,16720.0,16720.0,52,-22,16720,24,16725,24
2016-08-10 11:27:00,11:27:25,11:27:57,27185,27258,16720.0,25,16725.0,26,16725.0,16725.0,16725.0,16725.0,120,-29,16720,41,16725,22
2016-08-10 11:28:00,11:28:04,11:28:56,27262,27322,16720.0,42,16725.0,22,16720.0,16725.0,16720.0,16725.0,46,26,16720,40,16730,66
2016-08-10 11:29:00,11:29:11,11:29:18,27330,27339,16725.0,7,16730.0,65,16725.0,16725.0,16725.0,16725.0,6,-5,16720,39,16725,6
2016-08-10 11:30:00,11:30:00,11:30:27,27358,27526,16720.0,41,16725.0,16,16725.0,16725.0,16720.0,16720.0,142,122,16715,56,16725,47
2016-08-10 11:31:00,11:31:33,11:31:56,27575,27618,16715.0,44,16720.0,32,16720.0,16725.0,16720.0,16725.0,33,33,16720,43,16725,39
2016-08-10 11:32:00,11:32:05,11:32:44,27629,27672,16720.0,43,16725.0,41,16720.0,16725.0,16720.0,16725.0,13,11,16720,47,16725,38
2016-08-10 11:33:00,11:33:02,11:33:54,27691,27893,16720.0,41,16725.0,44,16725.0,16740.0,16725.0,16735.0,252,185,16735,28,16740,80
2016-08-10 11:34:00,11:34:00,11:34:58,27895,28151,16735.0,24,16740.0,80,16740.0,16745.0,16730.0,16745.0,339,117,16740,92,16750,67
2016-08-10 11:35:00,11:35:00,11:35:58,28157,28528,16745.0,4,16750.0,63,16750.0,16755.0,16745.0,16755.0,528,230,16750,46,16755,33
2016-08-10 11:36:00,11:36:01,11:36:59,28534,28913,16750.0,44,16755.0,41,16755.0,16760.0,16750.0,16755.0,524,-42,16750,55,16755,14
2016-08-10 11:37:00,11:37:00,11:37:59,28914,29225,16750.0,48,16755.0,20,16755.0,16760.0,16750.0,16755.0,338,-28,16750,49,16755,4
2016-08-10 11:38:00,11:38:00,11:38:59,29228,29629,16750.0,49,16755.0,4,16755.0,16785.0,16755.0,16780.0,614,452,16780,75,16785,35
2016-08-10 11:39:00,11:39:01,11:39:51,29635,29963,16780.0,73,16785.0,32,16785.0,16785.0,16765.0,16770.0,441,-231,16765,19,16770,45
2016-08-10 11:40:00,11:40:00,11:40:55,29976,30228,16765.0,20,16770.0,50,16765.0,16770.0,16760.0,16760.0,302,-106,16760,9,16765,50
2016-08-10 11:41:00,11:41:01,11:41:51,30244,30342,16760.0,17,16765.0,45,16765.0,16770.0,16765.0,16765.0,89,19,16760,42,16765,15
2016-08-10 11:42:00,11:42:01,11:42:51,30355,30423,16760.0,40,16765.0,32,16765.0,16770.0,16765.0,16765.0,71,51,16765,41,16765,14
2016-08-10 11:43:00,11:43:01,11:43:58,30427,30556,16760.0,50,16765.0,16,16765.0,16770.0,16765.0,16765.0,137,25,16765,4,16770,52
2016-08-10 11:44:00,11:44:01,11:44:52,30562,30653,16765.0,5,16770.0,52,16770.0,16770.0,16765.0,16770.0,45,-1,16765,13,16770,46
2016-08-10 11:45:00,11:45:02,11:45:52,30670,30766,16765.0,21,16770.0,52,16770.0,16770.0,16765.0,16770.0,23,11,16765,109,16770,28
2016-08-10 11:46:00,11:46:02,11:46:55,30776,31002,16765.0,105,16770.0,29,16770.0,16785.0,16770.0,16780.0,299,120,16780,7,16785,49
2016-08-10 11:47:00,11:47:02,11:47:52,31018,31114,16780.0,21,16785.0,45,16785.0,16785.0,16780.0,16785.0,17,13,16780,51,16785,64
2016-08-10 11:48:00,11:48:02,11:48:57,31122,31330,16780.0,50,16785.0,63,16785.0,16785.0,16775.0,16775.0,208,-148,16775,38,16780,59
2016-08-10 11:49:00,11:49:02,11:49:52,31331,31432,16775.0,37,16780.0,63,16780.0,16780.0,16770.0,16775.0,67,-21,16770,64,16775,13
2016-08-10 11:50:00,11:50:02,11:50:52,31442,31628,16770.0,65,16775.0,24,16775.0,16775.0,16765.0,16765.0,187,-149,16760,43,16765,26
2016-08-10 11:51:00,11:51:02,11:51:52,31647,31803,16760.0,43,16765.0,42,16765.0,16770.0,16765.0,16765.0,167,29,16760,41,16765,32
2016-08-10 11:52:00,11:52:02,11:52:54,31813,31886,16760.0,37,16765.0,38,16765.0,16765.0,16760.0,16765.0,18,14,16760,44,16765,80
2016-08-10 11:53:00,11:53:03,11:53:55,31894,32062,16760.0,41,16765.0,81,16765.0,16770.0,16760.0,16760.0,260,22,16760,59,16765,34
2016-08-10 11:54:00,11:54:03,11:54:53,32067,32170,16760.0,57,16765.0,34,16765.0,16770.0,16765.0,16770.0,131,25,16765,49,16770,51
2016-08-10 11:55:00,11:55:00,11:55:53,32178,32343,16765.0,50,16770.0,51,16765.0,16775.0,16765.0,16770.0,135,105,16770,50,16775,9
2016-08-10 11:56:00,11:56:14,11:56:53,32363,32433,16770.0,46,16775.0,27,16775.0,16775.0,16765.0,16775.0,61,29,16770,69,16775,36
2016-08-10 11:57:00,11:57:04,11:57:59,32451,32592,16770.0,67,16775.0,32,16770.0,16780.0,16770.0,16780.0,244,226,16780,2,16780,38
2016-08-10 11:58:00,11:58:00,11:58:47,32594,32908,16775.0,44,16780.0,38,16780.0,16790.0,16775.0,16780.0,633,353,16780,22,16785,61
2016-08-10 11:59:00,11:59:01,11:59:59,32934,33233,16780.0,32,16785.0,56,16780.0,16795.0,16780.0,16795.0,485,296,16790,23,16795,59
2016-08-10 12:00:00,12:00:03,12:00:59,33245,33612,16790.0,45,16795.0,39,16790.0,16800.0,16790.0,16795.0,608,420,16795,94,16800,26
2016-08-10 12:01:00,12:01:01,12:01:34,33615,33845,16795.0,93,16800.0,45,16800.0,16810.0,16795.0,16800.0,436,328,16795,117,16800,28
2016-08-10 12:02:00,12:02:04,12:02:52,33870,34035,16795.0,105,16800.0,170,16800.0,16800.0,16790.0,16790.0,292,-158,16790,30,16795,52
2016-08-10 12:03:00,12:03:02,12:03:57,34056,34227,16790.0,28,16795.0,48,16790.0,16795.0,16790.0,16790.0,148,-46,16790,14,16795,69
2016-08-10 12:04:00,12:04:02,12:04:51,34232,34276,16790.0,15,16795.0,69,16790.0,16790.0,16785.0,16790.0,39,-37,16785,57,16790,62
2016-08-10 12:05:00,12:05:08,12:05:57,34287,34441,16785.0,57,16790.0,48,16785.0,16795.0,16785.0,16795.0,204,40,16795,30,16800,171
2016-08-10 12:06:00,12:06:07,12:06:56,34447,34493,16795.0,48,16800.0,170,16800.0,16800.0,16795.0,16795.0,40,-28,16795,17,16800,66
2016-08-10 12:07:00,12:07:17,12:07:52,34512,34562,16795.0,29,16800.0,68,16800.0,16800.0,16795.0,16800.0,44,-24,16795,32,16800,74
2016-08-10 12:08:00,12:08:10,12:08:54,34578,34686,16795.0,34,16800.0,76,16795.0,16800.0,16795.0,16795.0,113,-59,16795,3,16795,7
2016-08-10 12:09:00,12:09:05,12:09:56,34696,34766,16790.0,68,16795.0,12,16795.0,16795.0,16795.0,16795.0,40,-7,16795,24,16800,68
2016-08-10 12:10:00,12:10:05,12:10:44,34775,34814,16795.0,36,16800.0,61,16795.0,16795.0,16795.0,16795.0,2,-2,16795,40,16800,63
2016-08-10 12:11:00,12:11:02,12:11:41,34835,34866,16795.0,46,16800.0,56,16795.0,16800.0,16795.0,16795.0,4,0,16795,40,16800,56
2016-08-10 12:12:00,12:12:02,12:12:56,34893,35086,16795.0,32,16800.0,58,16795.0,16805.0,16795.0,16800.0,206,36,16800,25,16805,52
2016-08-10 12:13:00,12:13:03,12:13:47,35099,35213,16800.0,24,16805.0,53,16800.0,16800.0,16795.0,16795.0,85,-57,16790,70,16795,11
2016-08-10 12:14:00,12:14:34,12:14:46,35250,35271,16790.0,72,16795.0,22,16795.0,16795.0,16790.0,16790.0,29,15,16790,71,16795,17
2016-08-10 12:15:00,12:15:00,12:15:59,35287,35439,16790.0,66,16795.0,16,16795.0,16795.0,16785.0,16785.0,129,-15,16785,50,16790,63
2016-08-10 12:16:00,12:16:00,12:16:53,35443,35611,16785.0,51,16790.0,63,16785.0,16790.0,16785.0,16790.0,212,70,16785,59,16790,11
2016-08-10 12:17:00,12:17:11,12:17:45,35633,35701,16785.0,50,16790.0,29,16790.0,16795.0,16790.0,16790.0,53,39,16790,49,16795,40
2016-08-10 12:18:00,12:18:17,12:18:36,35720,35828,16790.0,48,16795.0,43,16790.0,16790.0,16790.0,16790.0,124,-118,16785,54,16790,11
2016-08-10 12:19:00,12:19:41,12:19:42,35888,35905,16785.0,20,16790.0,57,16785.0,16785.0,16785.0,16785.0,23,-23,16785,13,16790,53
2016-08-10 12:20:00,12:20:02,12:20:58,35926,36060,16785.0,22,16790.0,43,16785.0,16785.0,16780.0,16785.0,107,1,16780,69,16785,4
2016-08-10 12:21:00,12:21:03,12:21:59,36071,36214,16780.0,69,16785.0,1,16785.0,16785.0,16775.0,16775.0,139,-135,16775,24,16780,63
2016-08-10 12:22:00,12:22:15,12:22:56,36228,36311,16775.0,37,16780.0,57,16775.0,16780.0,16775.0,16780.0,89,-1,16775,56,16780,8
2016-08-10 12:23:00,12:23:00,12:23:51,36319,36558,16775.0,55,16780.0,26,16780.0,16785.0,16765.0,16765.0,285,-175,16765,50,16770,22
2016-08-10 12:24:00,12:24:10,12:24:45,36581,36643,16765.0,34,16770.0,105,16765.0,16765.0,16765.0,16765.0,59,-59,16765,23,16770,63
2016-08-10 12:25:00,12:25:00,12:25:32,36648,36779,16765.0,23,16770.0,68,16765.0,16765.0,16760.0,16760.0,102,-99,16760,5,16765,57
2016-08-10 12:26:00,12:26:05,12:26:59,36807,36869,16760.0,26,16765.0,56,16760.0,16760.0,16760.0,16760.0,62,-62,16760,38,16765,60
2016-08-10 12:27:00,12:27:04,12:27:52,36870,36914,16760.0,39,16765.0,61,16760.0,16765.0,16760.0,16760.0,12,-6,16760,35,16765,45
2016-08-10 12:28:00,12:28:11,12:28:59,36935,37088,16760.0,36,16765.0,47,16765.0,16770.0,16765.0,16770.0,175,99,16770,9,16775,59
2016-08-10 12:29:00,12:29:14,12:29:25,37108,37114,16770.0,45,16775.0,42,16770.0,16770.0,16770.0,16770.0,4,-4,16770,36,16775,42
2016-08-10 12:30:00,12:30:03,12:30:55,37142,37294,16770.0,40,16775.0,42,16775.0,16780.0,16770.0,16780.0,166,60,16780,52,16785,48
2016-08-10 12:31:00,12:31:24,12:31:24,37318,37318,16780.0,58,16785.0,41,16780.0,16780.0,16780.0,16780.0,1,-1,16780,61,16785,43
2016-08-10 12:32:00,12:32:16,12:32:50,37342,37365,16780.0,58,16785.0,48,16780.0,16785.0,16780.0,16780.0,6,2,16780,55,16785,46
2016-08-10 12:33:00,12:33:30,12:33:37,37394,37402,16780.0,54,16785.0,55,16780.0,16785.0,16780.0,16785.0,4,2,16780,59,16785,51
2016-08-10 12:34:00,12:34:08,12:34:58,37422,37535,16780.0,59,16785.0,52,16785.0,16785.0,16780.0,16780.0,133,61,16775,94,16780,22
2016-08-10 12:35:00,12:35:06,12:35:49,37546,37675,16775.0,93,16780.0,26,16780.0,16785.0,16780.0,16785.0,131,115,16780,41,16785,2
2016-08-10 12:36:00,12:36:00,12:36:55,37685,37729,16780.0,42,16785.0,12,16785.0,16785.0,16780.0,16780.0,16,13,16780,39,16785,39
2016-08-10 12:37:00,12:37:00,12:37:53,37738,37824,16780.0,40,16785.0,36,16785.0,16785.0,16780.0,16780.0,50,-16,16780,29,16785,40
2016-08-10 12:38:00,12:38:00,12:38:50,37830,37870,16780.0,32,16785.0,37,16785.0,16785.0,16785.0,16785.0,17,17,16780,44,16785,36
2016-08-10 12:39:00,12:39:00,12:39:50,37875,38032,16780.0,51,16785.0,36,16785.0,16790.0,16785.0,16785.0,280,0,16780,46,16785,4
2016-08-10 12:40:00,12:40:00,12:40:58,38040,38129,16780.0,46,16785.0,4,16785.0,16785.0,16775.0,16775.0,60,-30,16775,92,16780,19
2016-08-10 12:41:00,12:41:00,12:41:51,38132,38227,16775.0,92,16780.0,19,16780.0,16785.0,16775.0,16785.0,68,8,16780,61,16785,44
2016-08-10 12:42:00,12:42:01,12:42:51,38229,38301,16780.0,63,16785.0,44,16785.0,16785.0,16780.0,16785.0,49,31,16780,11,16785,59
2016-08-10 12:43:00,12:43:01,12:43:57,38318,38407,16780.0,31,16785.0,60,16785.0,16785.0,16780.0,16780.0,57,-27,16780,3,16785,65
2016-08-10 12:44:00,12:44:00,12:44:51,38415,38539,16780.0,7,16785.0,61,16780.0,16785.0,16780.0,16780.0,87,-35,16775,107,16780,17
2016-08-10 12:45:00,12:45:00,12:45:51,38548,38599,16775.0,102,16780.0,37,16775.0,16780.0,16775.0,16780.0,19,15,16775,107,16780,30
2016-08-10 12:46:00,12:46:01,12:46:51,38608,38768,16775.0,106,16780.0,54,16780.0,16780.0,16770.0,16775.0,207,-81,16770,39,16775,47
2016-08-10 12:47:00,12:47:01,12:47:52,38776,38810,16770.0,34,16775.0,44,16775.0,16775.0,16775.0,16775.0,16,16,16770,45,16775,25
2016-08-10 12:48:00,12:48:01,12:48:51,38814,38895,16770.0,47,16775.0,25,16775.0,16780.0,16770.0,16780.0,45,21,16775,21,16780,28
2016-08-10 12:49:00,12:49:01,12:49:51,38904,39015,16775.0,13,16780.0,36,16780.0,16780.0,16775.0,16775.0,81,-19,16770,16,16775,28
2016-08-10 12:50:00,12:50:01,12:50:52,39021,39081,16770.0,43,16775.0,28,16770.0,16775.0,16770.0,16775.0,33,-5,16770,44,16775,29
2016-08-10 12:51:00,12:51:02,12:51:52,39086,39214,16770.0,47,16775.0,29,16775.0,16780.0,16775.0,16780.0,108,6,16775,4,16780,63
2016-08-10 12:52:00,12:52:00,12:52:52,39233,39338,16775.0,9,16780.0,76,16775.0,16780.0,16775.0,16780.0,44,14,16775,37,16780,60
2016-08-10 12:53:00,12:53:02,12:53:52,39342,39462,16775.0,37,16780.0,62,16780.0,16785.0,16775.0,16785.0,86,56,16780,13,16785,60
2016-08-10 12:54:00,12:54:02,12:54:55,39473,39603,16780.0,18,16785.0,59,16785.0,16785.0,16780.0,16780.0,70,4,16775,47,16780,17
2016-08-10 12:55:00,12:55:02,12:55:54,39611,39648,16775.0,48,16780.0,13,16780.0,16780.0,16780.0,16780.0,23,23,16775,36,16780,35
2016-08-10 12:56:00,12:56:12,12:56:19,39653,39661,16775.0,37,16780.0,36,16775.0,16780.0,16775.0,16780.0,4,2,16775,34,16780,38
2016-08-10 12:57:00,12:57:05,12:57:10,39674,39701,16775.0,36,16780.0,42,16775.0,16775.0,16770.0,16770.0,22,-22,16770,34,16775,64
2016-08-10 12:58:00,12:58:26,12:58:45,39753,39778,16770.0,42,16775.0,49,16770.0,16775.0,16770.0,16770.0,8,-2,16770,21,16775,82
2016-08-10 12:59:00,12:59:42,12:59:57,39818,39833,16770.0,48,16775.0,34,16775.0,16775.0,16770.0,16770.0,5,3,16770,47,16775,35
2016-08-10 13:00:00,13:00:02,13:00:58,39839,40000,16770.0,47,16775.0,35,16770.0,16770.0,16770.0,16770.0,128,-69,16770,3,16770,4
2016-08-10 13:01:00,13:01:00,13:01:54,40004,40183,16765.0,83,16770.0,7,16770.0,16775.0,16760.0,16765.0,194,-116,16760,46,16765,42
2016-08-10 13:02:00,13:02:16,13:02:16,40211,40217,16760.0,41,16765.0,47,16765.0,16765.0,16765.0,16765.0,20,20,16760,48,16765,24
2016-08-10 13:03:00,13:03:00,13:03:56,40241,40396,16760.0,41,16765.0,50,16765.0,16765.0,16760.0,16765.0,141,-55,16760,40,16765,24
2016-08-10 13:04:00,13:04:07,13:04:33,40402,40463,16760.0,42,16765.0,25,16765.0,16765.0,16765.0,16765.0,43,28,16765,1,16770,64
2016-08-10 13:05:00,13:05:00,13:05:50,40503,40686,16765.0,39,16770.0,52,16765.0,16770.0,16765.0,16765.0,170,53,16765,30,16770,26
2016-08-10 13:06:00,13:06:03,13:06:49,40703,40806,16765.0,24,16770.0,39,16765.0,16770.0,16765.0,16765.0,73,-15,16760,44,16765,1
2016-08-10 13:07:00,13:07:21,13:07:56,40836,40855,16760.0,46,16765.0,12,16765.0,16765.0,16765.0,16765.0,3,3,16760,35,16765,23
2016-08-10 13:08:00,13:08:21,13:08:41,40872,40887,16760.0,44,16765.0,17,16765.0,16765.0,16760.0,16760.0,5,1,16760,51,16765,24
2016-08-10 13:09:00,13:09:21,13:09:59,40906,41083,16760.0,48,16765.0,40,16760.0,16765.0,16750.0,16750.0,160,-146,16750,34,16755,42
2016-08-10 13:10:00,13:10:00,13:10:58,41087,41439,16750.0,34,16755.0,36,16750.0,16750.0,16735.0,16740.0,384,-69,16735,68,16740,10
2016-08-10 13:11:00,13:11:01,13:11:55,41447,41674,16735.0,72,16740.0,26,16740.0,16745.0,16740.0,16740.0,229,56,16735,51,16740,19
2016-08-10 13:12:00,13:12:00,13:12:57,41681,41836,16735.0,53,16740.0,6,16740.0,16740.0,16740.0,16740.0,86,-2,16740,7,16745,60
2016-08-10 13:13:00,13:13:10,13:13:21,41856,41872,16735.0,31,16740.0,41,16735.0,16735.0,16735.0,16735.0,14,-14,16735,5,16740,52
2016-08-10 13:14:00,13:14:13,13:14:57,41924,42030,16735.0,21,16740.0,48,16740.0,16740.0,16725.0,16725.0,84,-76,16725,43,16730,35
2016-08-10 13:15:00,13:15:00,13:15:58,42040,42572,16725.0,36,16730.0,60,16725.0,16725.0,16705.0,16715.0,858,-477,16710,67,16720,141
2016-08-10 13:16:00,13:16:02,13:16:59,42585,42724,16710.0,50,16715.0,30,16715.0,16720.0,16710.0,16715.0,127,47,16715,4,16720,180
2016-08-10 13:17:00,13:17:02,13:17:59,42734,42900,16715.0,13,16720.0,178,16715.0,16720.0,16715.0,16715.0,219,40,16710,67,16715,3
2016-08-10 13:18:00,13:18:01,13:18:57,42907,42995,16710.0,63,16715.0,4,16715.0,16720.0,16715.0,16720.0,82,64,16715,44,16720,72
2016-08-10 13:19:00,13:19:24,13:19:59,43022,43184,16715.0,42,16720.0,79,16720.0,16725.0,16720.0,16725.0,214,172,16720,66,16725,12
2016-08-10 13:20:00,13:20:00,13:20:57,43185,43283,16725.0,15,16730.0,87,16725.0,16725.0,16720.0,16720.0,34,6,16720,54,16725,38
2016-08-10 13:21:00,13:21:01,13:21:45,43286,43386,16720.0,54,16725.0,38,16725.0,16725.0,16720.0,16720.0,95,73,16720,95,16725,20
2016-08-10 13:22:00,13:22:01,13:22:53,43399,43478,16720.0,95,16725.0,22,16720.0,16725.0,16720.0,16720.0,122,-46,16715,98,16720,29
2016-08-10 13:23:00,13:23:14,13:23:56,43498,43572,16715.0,98,16720.0,51,16720.0,16730.0,16720.0,16730.0,89,85,16725,32,16730,80
2016-08-10 13:24:00,13:24:09,13:24:57,43592,43624,16725.0,47,16730.0,69,16725.0,16725.0,16725.0,16725.0,5,-5,16725,43,16730,67
2016-08-10 13:25:00,13:25:13,13:25:50,43634,43841,16725.0,50,16730.0,71,16725.0,16740.0,16725.0,16735.0,246,183,16730,87,16735,1
2016-08-10 13:26:00,13:26:01,13:26:55,43856,43931,16730.0,84,16735.0,9,16730.0,16735.0,16730.0,16735.0,49,-1,16735,7,16740,63
2016-08-10 13:27:00,13:27:21,13:27:58,43958,43996,16735.0,61,16740.0,56,16735.0,16735.0,16735.0,16735.0,62,-62,16730,70,16735,10
2016-08-10 13:28:00,13:28:06,13:28:57,44007,44054,16730.0,73,16735.0,7,16735.0,16735.0,16730.0,16735.0,19,13,16735,19,16740,62
2016-08-10 13:29:00,13:29:05,13:29:45,44062,44104,16735.0,20,16740.0,65,16735.0,16735.0,16735.0,16735.0,17,-17,16735,44,16740,58
2016-08-10 13:30:00,13:30:01,13:30:56,44117,44402,16735.0,52,16740.0,56,16735.0,16745.0,16735.0,16735.0,385,-114,16730,54,16735,2
2016-08-10 13:31:00,13:31:21,13:31:58,44426,44462,16730.0,55,16735.0,23,16730.0,16735.0,16730.0,16735.0,9,3,16730,46,16735,31
2016-08-10 13:32:00,13:32:02,13:32:57,44469,44550,16730.0,52,16735.0,17,16735.0,16740.0,16735.0,16735.0,25,19,16735,103,16740,53
2016-08-10 13:33:00,13:33:13,13:33:50,44569,44695,16735.0,74,16740.0,53,16735.0,16740.0,16730.0,16730.0,106,-76,16730,3,16735,87
2016-08-10 13:34:00,13:34:01,13:34:27,44714,44809,16730.0,39,16735.0,84,16730.0,16730.0,16720.0,16720.0,126,-83,16715,49,16720,10
2016-08-10 13:35:00,13:35:01,13:35:58,44851,45004,16715.0,43,16720.0,59,16715.0,16715.0,16710.0,16715.0,163,17,16710,51,16715,5
2016-08-10 13:36:00,13:36:03,13:36:51,45015,45056,16710.0,54,16715.0,15,16715.0,16720.0,16715.0,16720.0,16,16,16715,27,16720,68
2016-08-10 13:37:00,13:37:11,13:37:46,45085,45164,16715.0,25,16720.0,73,16715.0,16715.0,16705.0,16705.0,52,-52,16705,43,16710,56
2016-08-10 13:38:00,13:38:00,13:38:43,45177,45255,16705.0,51,16710.0,61,16705.0,16710.0,16705.0,16705.0,77,-75,16705,2,16710,79
2016-08-10 13:39:00,13:39:09,13:39:58,45271,45345,16705.0,49,16710.0,70,16705.0,16715.0,16705.0,16715.0,48,46,16710,52,16715,60
2016-08-10 13:40:00,13:40:06,13:40:58,45361,45604,16710.0,74,16715.0,33,16715.0,16725.0,16715.0,16725.0,270,132,16720,63,16725,16
2016-08-10 13:41:00,13:41:02,13:41:57,45610,45733,16720.0,64,16725.0,14,16725.0,16725.0,16720.0,16725.0,52,28,16725,70,16730,60
2016-08-10 13:42:00,13:42:07,13:42:58,45744,46098,16725.0,66,16730.0,60,16725.0,16725.0,16700.0,16705.0,542,-256,16700,94,16705,7
2016-08-10 13:43:00,13:43:03,13:43:59,46110,46235,16700.0,104,16705.0,19,16705.0,16710.0,16705.0,16705.0,84,-32,16700,102,16705,9
2016-08-10 13:44:00,13:44:00,13:44:58,46238,46542,16700.0,102,16705.0,9,16705.0,16710.0,16695.0,16700.0,488,-434,16700,31,16705,92
2016-08-10 13:45:00,13:45:01,13:45:56,46551,46861,16700.0,30,16705.0,94,16700.0,16715.0,16695.0,16710.0,451,145,16710,57,16715,24
2016-08-10 13:46:00,13:46:02,13:46:56,46870,46977,16710.0,62,16715.0,28,16710.0,16720.0,16710.0,16720.0,21,15,16715,65,16720,38
2016-08-10 13:47:00,13:47:01,13:47:56,46985,47212,16715.0,66,16720.0,43,16715.0,16715.0,16710.0,16710.0,269,-209,16710,26,16715,53
2016-08-10 13:48:00,13:48:00,13:48:59,47219,47404,16710.0,31,16715.0,52,16715.0,16715.0,16705.0,16705.0,156,-46,16705,74,16710,39
2016-08-10 13:49:00,13:49:06,13:49:59,47411,47679,16705.0,80,16710.0,32,16705.0,16710.0,16695.0,16695.0,303,-198,16695,7,16700,48
2016-08-10 13:50:00,13:50:02,13:50:46,47687,47859,16695.0,8,16700.0,48,16695.0,16700.0,16690.0,16700.0,155,106,16695,39,16700,28
2016-08-10 13:51:00,13:51:05,13:51:59,47896,48099,16695.0,35,16700.0,31,16700.0,16705.0,16695.0,16705.0,139,97,16700,91,16705,2
2016-08-10 13:52:00,13:52:01,13:52:57,48105,48407,16700.0,93,16705.0,2,16705.0,16705.0,16690.0,16695.0,293,-80,16695,2,16700,46
2016-08-10 13:53:00,13:53:02,13:53:54,48415,48547,16695.0,5,16700.0,50,16695.0,16700.0,16695.0,16700.0,91,-1,16695,49,16700,63
2016-08-10 13:54:00,13:54:01,13:54:59,48552,48718,16695.0,48,16700.0,59,16695.0,16700.0,16690.0,16690.0,95,-47,16690,57,16695,21
2016-08-10 13:55:00,13:55:00,13:55:57,48721,48924,16690.0,59,16695.0,26,16690.0,16700.0,16690.0,16695.0,195,-33,16690,59,16695,13
2016-08-10 13:56:00,13:56:00,13:56:59,48932,49225,16690.0,61,16695.0,24,16695.0,16695.0,16685.0,16685.0,339,-23,16685,79,16695,169
2016-08-10 13:57:00,13:57:06,13:57:59,49237,49410,16685.0,87,16690.0,18,16690.0,16695.0,16690.0,16690.0,197,115,16685,94,16690,14
2016-08-10 13:58:00,13:58:03,13:58:58,49424,49670,16685.0,104,16690.0,29,16690.0,16690.0,16685.0,16690.0,295,69,16690,2,16695,126
2016-08-10 13:59:00,13:59:00,13:59:59,49677,50175,16690.0,38,16695.0,107,16690.0,16705.0,16690.0,16700.0,746,-41,16700,17,16705,39
2016-08-10 14:00:00,14:00:00,14:00:58,50176,50998,16700.0,48,16705.0,27,16700.0,16720.0,16695.0,16715.0,1515,385,16710,113,16715,23
2016-08-10 14:01:00,14:01:03,14:01:57,51002,51319,16710.0,116,16715.0,23,16715.0,16720.0,16710.0,16715.0,531,-101,16715,43,16720,86
2016-08-10 14:02:00,14:02:08,14:02:56,51340,51635,16715.0,44,16720.0,93,16715.0,16715.0,16695.0,16705.0,530,-244,16700,115,16705,23
2016-08-10 14:03:00,14:03:00,14:03:58,51639,51840,16700.0,105,16705.0,23,16705.0,16710.0,16700.0,16700.0,207,137,16700,150,16705,19
2016-08-10 14:04:00,14:04:00,14:04:59,51845,52105,16700.0,154,16705.0,41,16705.0,16715.0,16700.0,16710.0,403,-68,16710,66,16715,43
2016-08-10 14:05:00,14:05:00,14:05:46,52108,52231,16710.0,66,16715.0,43,16715.0,16720.0,16710.0,16715.0,130,4,16710,64,16715,88
2016-08-10 14:06:00,14:06:03,14:06:50,52248,52378,16710.0,73,16715.0,92,16715.0,16715.0,16705.0,16705.0,147,-59,16705,55,16710,84
2016-08-10 14:07:00,14:07:05,14:07:49,52399,52486,16705.0,52,16710.0,89,16705.0,16710.0,16705.0,16705.0,119,17,16705,66,16710,65
2016-08-10 14:08:00,14:08:00,14:08:59,52499,52904,16705.0,64,16710.0,68,16705.0,16720.0,16705.0,16715.0,912,555,16710,84,16715,1
2016-08-10 14:09:00,14:09:00,14:09:59,52906,53138,16710.0,84,16720.0,107,16715.0,16720.0,16710.0,16720.0,367,152,16715,81,16725,70
