,ST,ET,sidx,eidx,bB,bBS,bA,bAS,O,H,L,C,V,OF,eB,eBS,eA,eAS
2016-06-22 08:00:00,08:00:00,08:00:57,1701,2108,16055.0,3,16060.0,6,16060.0,16065.0,16035.0,16045.0,465,-37,16040,14,16045,1
2016-06-22 08:01:00,08:01:00,08:01:56,2116,2468,16040.0,13,16045.0,28,16040.0,16040.0,16025.0,16025.0,390,-85,16025,3,16030,25
2016-06-22 08:02:00,08:02:00,08:02:59,2476,2845,16025.0,37,16030.0,19,16030.0,16050.0,16030.0,16045.0,456,29,16040,22,16045,26
2016-06-22 08:03:00,08:03:02,08:03:56,2850,3120,16040.0,22,16045.0,31,16040.0,16045.0,16035.0,16045.0,268,89,16040,18,16050,27
2016-06-22 08:04:00,08:04:00,08:04:58,3126,3420,16045.0,1,16050.0,28,16045.0,16070.0,16045.0,16070.0,258,120,16065,17,16070,18
2016-06-22 08:05:00,08:05:00,08:05:59,3424,3714,16065.0,19,16070.0,18,16070.0,16085.0,16070.0,16070.0,227,8,16065,13,16070,15
2016-06-22 08:06:00,08:06:03,08:06:58,3727,3908,16065.0,12,16070.0,27,16070.0,16075.0,16065.0,16065.0,90,38,16065,35,16070,13
2016-06-22 08:07:00,08:07:01,08:07:59,3915,4050,16065.0,28,16070.0,18,16065.0,16075.0,16065.0,16075.0,68,5,16070,20,16075,6
2016-06-22 08:08:00,08:08:00,08:08:59,4051,4276,16070.0,18,16075.0,13,16075.0,16075.0,16055.0,16055.0,179,-79,16050,25,16055,2
2016-06-22 08:09:00,08:09:00,08:09:59,4277,4519,16055.0,4,16060.0,30,16055.0,16055.0,16040.0,16045.0,265,23,16040,16,16045,10
2016-06-22 08:10:00,08:10:00,08:10:53,4523,4683,16040.0,16,16045.0,9,16045.0,16045.0,16025.0,16025.0,136,-90,16025,18,16030,33
2016-06-22 08:11:00,08:11:07,08:11:51,4703,4874,16025.0,48,16030.0,28,16030.0,16035.0,16030.0,16035.0,190,37,16035,5,16040,51
2016-06-22 08:12:00,08:12:00,08:12:56,4880,5117,16035.0,8,16040.0,21,16035.0,16050.0,16030.0,16030.0,228,66,16030,17,16035,30
2016-06-22 08:13:00,08:13:12,08:13:58,5149,5454,16030.0,21,16035.0,28,16035.0,16035.0,16010.0,16015.0,406,-92,16010,25,16020,24
2016-06-22 08:14:00,08:14:01,08:14:59,5462,5703,16010.0,25,16015.0,32,16015.0,16035.0,16010.0,16035.0,245,186,16030,56,16035,4
2016-06-22 08:15:00,08:15:00,08:15:56,5706,5912,16030.0,56,16035.0,4,16035.0,16050.0,16035.0,16045.0,170,19,16045,4,16050,31
2016-06-22 08:16:00,08:16:02,08:16:32,5927,5973,16045.0,8,16050.0,39,16045.0,16045.0,16045.0,16045.0,13,-1,16040,24,16045,25
2016-06-22 08:17:00,08:17:02,08:17:57,6017,6165,16040.0,30,16045.0,27,16045.0,16045.0,16040.0,16045.0,137,25,16040,34,16045,14
2016-06-22 08:18:00,08:18:04,08:18:51,6182,6315,16040.0,31,16045.0,15,16045.0,16050.0,16045.0,16045.0,96,8,16040,31,16045,8
2016-06-22 08:19:00,08:19:13,08:19:58,6341,6473,16040.0,34,16045.0,17,16040.0,16050.0,16040.0,16045.0,132,88,16040,19,16045,51
2016-06-22 08:20:00,08:20:00,08:20:59,6476,6710,16040.0,19,16045.0,51,16045.0,16045.0,16020.0,16020.0,201,-135,16015,28,16020,6
2016-06-22 08:21:00,08:21:01,08:21:51,6719,6891,16015.0,20,16020.0,27,16020.0,16020.0,16015.0,16015.0,218,-150,16015,5,16020,32
2016-06-22 08:22:00,08:22:01,08:22:53,6907,7134,16015.0,8,16020.0,31,16020.0,16035.0,16020.0,16035.0,220,173,16030,34,16035,6
2016-06-22 08:23:00,08:23:00,08:23:57,7144,7347,16030.0,32,16035.0,6,16035.0,16035.0,16030.0,16035.0,144,109,16030,25,16035,11
2016-06-22 08:24:00,08:24:02,08:24:48,7353,7487,16030.0,24,16035.0,10,16035.0,16035.0,16020.0,16020.0,64,8,16020,10,16025,25
2016-06-22 08:25:00,08:25:00,08:25:51,7503,7631,16020.0,30,16025.0,18,16025.0,16035.0,16025.0,16030.0,79,63,16025,30,16030,6
2016-06-22 08:26:00,08:26:18,08:26:57,7660,7723,16025.0,27,16030.0,10,16030.0,16040.0,16030.0,16035.0,37,37,16030,38,16040,36
2016-06-22 08:27:00,08:27:00,08:27:56,7729,7871,16030.0,33,16040.0,39,16035.0,16035.0,16025.0,16030.0,100,39,16025,44,16030,11
2016-06-22 08:28:00,08:28:19,08:28:52,7881,7952,16025.0,54,16030.0,12,16025.0,16040.0,16025.0,16035.0,49,21,16030,27,16035,9
2016-06-22 08:29:00,08:29:05,08:29:59,7964,8120,16030.0,18,16035.0,21,16030.0,16035.0,16015.0,16015.0,160,-130,16015,23,16020,30
2016-06-22 08:30:00,08:30:00,08:30:49,8123,8303,16015.0,23,16020.0,30,16020.0,16025.0,16020.0,16025.0,140,130,16020,19,16025,13
2016-06-22 08:31:00,08:31:01,08:31:59,8318,8466,16020.0,17,16025.0,18,16025.0,16035.0,16025.0,16035.0,81,56,16035,2,16040,34
2016-06-22 08:32:00,08:32:15,08:32:56,8481,8614,16035.0,14,16040.0,33,16035.0,16040.0,16035.0,16035.0,86,-38,16030,30,16035,2
2016-06-22 08:33:00,08:33:00,08:33:59,8617,8708,16035.0,1,16040.0,26,16035.0,16035.0,16035.0,16035.0,27,-1,16030,29,16035,16
2016-06-22 08:34:00,08:34:00,08:34:29,8713,8748,16030.0,30,16035.0,19,16035.0,16035.0,16035.0,16035.0,20,14,16035,9,16040,28
2016-06-22 08:35:00,08:35:00,08:35:29,8786,8847,16035.0,22,16040.0,12,16040.0,16040.0,16040.0,16040.0,24,24,16035,29,16040,3
2016-06-22 08:36:00,08:36:01,08:36:51,8883,8983,16040.0,19,16045.0,19,16045.0,16045.0,16035.0,16035.0,60,-4,16030,37,16035,12
2016-06-22 08:37:00,08:37:00,08:37:59,8996,9118,16030.0,13,16035.0,36,16030.0,16030.0,16020.0,16020.0,108,-82,16015,78,16020,5
2016-06-22 08:38:00,08:38:19,08:38:44,9139,9230,16015.0,73,16020.0,22,16020.0,16025.0,16020.0,16020.0,86,42,16015,71,16020,29
2016-06-22 08:39:00,08:39:00,08:39:44,9255,9325,16015.0,73,16020.0,13,16015.0,16020.0,16015.0,16015.0,64,-42,16015,35,16020,15
2016-06-22 08:40:00,08:40:00,08:40:53,9340,9534,16015.0,32,16020.0,59,16020.0,16020.0,15990.0,15995.0,181,-169,15990,34,15995,19
2016-06-22 08:41:00,08:41:15,08:41:55,9569,9743,15990.0,26,15995.0,31,15995.0,16010.0,15995.0,16005.0,183,-3,16005,12,16010,33
2016-06-22 08:42:00,08:42:04,08:42:47,9754,9856,16005.0,9,16010.0,34,16005.0,16015.0,16005.0,16015.0,81,33,16015,20,16020,26
2016-06-22 08:43:00,08:43:03,08:43:59,9877,10008,16015.0,19,16020.0,28,16020.0,16020.0,16015.0,16020.0,92,48,16015,35,16020,7
2016-06-22 08:44:00,08:44:12,08:44:43,10023,10102,16015.0,30,16020.0,22,16015.0,16015.0,16010.0,16015.0,80,-50,16010,29,16015,31
2016-06-22 08:45:00,08:45:00,08:45:44,10104,10235,16010.0,31,16015.0,31,16015.0,16020.0,16010.0,16010.0,130,52,16005,32,16010,1
2016-06-22 08:46:00,08:46:43,08:46:43,10298,10305,16005.0,29,16010.0,17,16010.0,16010.0,16010.0,16010.0,11,11,16005,27,16010,12
2016-06-22 08:47:00,08:47:13,08:47:59,10345,10528,16005.0,17,16010.0,31,16005.0,16005.0,15985.0,15985.0,189,-133,15985,4,15990,20
2016-06-22 08:48:00,08:48:00,08:48:55,10529,10694,15985.0,6,15990.0,19,15985.0,15985.0,15980.0,15985.0,100,-28,15980,27,15985,27
2016-06-22 08:49:00,08:49:01,08:49:46,10698,10802,15980.0,27,15985.0,31,15985.0,15985.0,15985.0,15985.0,65,30,15985,12,15990,38
2016-06-22 08:50:00,08:50:00,08:50:59,10817,11067,15985.0,20,15990.0,35,15990.0,15990.0,15965.0,15965.0,320,-220,15960,39,15965,6
2016-06-22 08:51:00,08:51:01,08:51:52,11074,11288,15960.0,39,15965.0,19,15965.0,15975.0,15965.0,15970.0,169,35,15965,72,15970,10
2016-06-22 08:52:00,08:52:04,08:52:54,11305,11466,15970.0,15,15975.0,32,15970.0,15970.0,15965.0,15970.0,201,-112,15970,6,15975,17
2016-06-22 08:53:00,08:53:09,08:53:54,11486,11656,15970.0,14,15975.0,30,15970.0,15980.0,15965.0,15980.0,251,153,15975,54,15980,21
2016-06-22 08:54:00,08:54:05,08:54:59,11681,11846,15975.0,65,15980.0,17,15980.0,15980.0,15975.0,15975.0,71,-6,15970,28,15980,24
2016-06-22 08:55:00,08:55:00,08:55:59,11849,12047,15970.0,28,15980.0,24,15975.0,15990.0,15970.0,15990.0,181,150,15990,4,15995,34
2016-06-22 08:56:00,08:56:00,08:56:58,12052,12209,15990.0,3,15995.0,31,15990.0,16000.0,15990.0,15990.0,131,-27,15990,5,15995,33
2016-06-22 08:57:00,08:57:04,08:57:45,12228,12318,15985.0,13,15990.0,31,15985.0,15990.0,15985.0,15985.0,58,16,15980,26,15990,36
2016-06-22 08:58:00,08:58:07,08:58:56,12346,12490,15985.0,4,15990.0,34,15985.0,15985.0,15970.0,15970.0,192,-124,15970,9,15975,27
2016-06-22 08:59:00,08:59:02,08:59:50,12502,12664,15970.0,14,15975.0,26,15975.0,15985.0,15970.0,15970.0,157,59,15970,20,15975,17
2016-06-22 09:00:00,09:00:00,09:00:58,12676,12912,15970.0,21,15975.0,15,15975.0,15975.0,15945.0,15960.0,186,-84,15955,15,15960,17
2016-06-22 09:01:00,09:01:02,09:01:48,12926,13117,15955.0,9,15960.0,31,15955.0,15960.0,15950.0,15960.0,250,-75,15955,12,15960,26
2016-06-22 09:02:00,09:02:00,09:02:57,13126,13261,15955.0,12,15960.0,33,15960.0,15965.0,15955.0,15965.0,125,10,15960,25,15965,10
2016-06-22 09:03:00,09:03:17,09:03:52,13281,13343,15960.0,26,15965.0,9,15965.0,15975.0,15965.0,15975.0,62,58,15970,33,15980,32
2016-06-22 09:04:00,09:04:02,09:04:59,13367,13532,15975.0,14,15980.0,25,15975.0,15980.0,15960.0,15960.0,211,-147,15955,11,15960,17
2016-06-22 09:05:00,09:05:01,09:05:59,13537,13677,15955.0,8,15960.0,23,15955.0,15970.0,15955.0,15960.0,129,59,15955,24,15960,20
2016-06-22 09:06:00,09:06:00,09:06:57,13683,13815,15955.0,15,15960.0,29,15960.0,15960.0,15955.0,15960.0,82,24,15955,21,15960,30
2016-06-22 09:07:00,09:07:15,09:07:47,13844,13969,15955.0,20,15960.0,32,15960.0,15970.0,15960.0,15970.0,163,56,15965,49,15970,24
2016-06-22 09:08:00,09:08:17,09:08:57,13987,14092,15965.0,56,15970.0,28,15970.0,15970.0,15960.0,15965.0,132,-71,15965,1,15970,45
2016-06-22 09:09:00,09:09:07,09:09:47,14106,14206,15960.0,18,15965.0,23,15965.0,15980.0,15965.0,15980.0,80,70,15970,23,15980,28
2016-06-22 09:10:00,09:10:14,09:10:51,14234,14292,15970.0,6,15975.0,33,15970.0,15970.0,15965.0,15965.0,33,7,15965,22,15970,22
2016-06-22 09:11:00,09:11:05,09:11:58,14308,14383,15965.0,35,15970.0,22,15970.0,15980.0,15965.0,15975.0,37,11,15970,20,15975,25
2016-06-22 09:12:00,09:12:19,09:12:57,14398,14499,15970.0,15,15975.0,62,15970.0,15970.0,15960.0,15960.0,95,-13,15955,31,15965,36
2016-06-22 09:13:00,09:13:06,09:13:48,14511,14555,15960.0,3,15965.0,33,15960.0,15965.0,15960.0,15965.0,9,-1,15960,19,15965,29
2016-06-22 09:14:00,09:14:02,09:14:54,14563,14677,15960.0,20,15965.0,28,15965.0,15980.0,15965.0,15980.0,142,136,15975,29,15980,6
2016-06-22 09:15:00,09:15:04,09:15:50,14682,14794,15975.0,31,15980.0,11,15980.0,15980.0,15975.0,15975.0,75,-12,15970,34,15980,31
2016-06-22 09:16:00,09:16:42,09:16:59,14833,14874,15970.0,22,15975.0,35,15975.0,15980.0,15975.0,15980.0,40,40,15980,23,15985,33
2016-06-22 09:17:00,09:17:01,09:17:52,14883,15031,15980.0,13,15985.0,46,15980.0,15980.0,15975.0,15980.0,161,83,15975,42,15980,10
2016-06-22 09:18:00,09:18:06,09:18:57,15037,15106,15975.0,42,15980.0,10,15980.0,15990.0,15980.0,15990.0,33,23,15985,28,15990,9
2016-06-22 09:19:00,09:19:01,09:19:54,15111,15226,15985.0,24,15990.0,18,15985.0,15990.0,15985.0,15990.0,51,25,15985,40,15990,4
2016-06-22 09:20:00,09:20:00,09:20:49,15235,15406,15985.0,34,15990.0,5,15990.0,16005.0,15990.0,16000.0,145,42,15995,140,16000,11
2016-06-22 09:21:00,09:21:00,09:21:56,15426,15561,15995.0,29,16000.0,18,16000.0,16010.0,16000.0,16005.0,116,108,16005,9,16010,32
2016-06-22 09:22:00,09:22:09,09:22:49,15572,15725,16005.0,31,16010.0,28,16010.0,16030.0,16010.0,16025.0,124,85,16020,24,16025,11
2016-06-22 09:23:00,09:23:00,09:23:13,15740,15768,16020.0,18,16025.0,30,16025.0,16025.0,16020.0,16020.0,19,-3,16015,24,16020,11
2016-06-22 09:24:00,09:24:07,09:24:32,15796,15877,16015.0,30,16020.0,18,16015.0,16015.0,16005.0,16005.0,73,-11,16005,27,16010,12
2016-06-22 09:25:00,09:25:06,09:25:36,15909,15970,16005.0,37,16010.0,9,16010.0,16020.0,16010.0,16020.0,15,15,16015,69,16020,17
2016-06-22 09:26:00,09:26:10,09:26:53,15996,16115,16015.0,70,16020.0,29,16020.0,16020.0,16015.0,16015.0,136,-16,16015,6,16020,24
2016-06-22 09:27:00,09:27:19,09:27:52,16138,16228,16015.0,10,16020.0,24,16015.0,16015.0,16005.0,16005.0,78,16,16000,32,16005,4
2016-06-22 09:28:00,09:28:11,09:28:58,16255,16345,16000.0,32,16005.0,17,16005.0,16005.0,16000.0,16000.0,100,18,16000,18,16005,23
2016-06-22 09:29:00,09:29:01,09:29:52,16351,16440,16000.0,21,16005.0,15,16005.0,16010.0,16005.0,16005.0,67,-9,16000,32,16005,9
2016-06-22 09:30:00,09:30:00,09:30:42,16461,16635,16000.0,28,16005.0,15,16005.0,16005.0,15980.0,15985.0,162,-47,15985,13,15990,17
2016-06-22 09:31:00,09:31:00,09:31:59,16666,16779,15985.0,14,15990.0,20,15985.0,16010.0,15985.0,16005.0,69,49,16000,28,16005,17
2016-06-22 09:32:00,09:32:07,09:32:57,16793,17013,16000.0,29,16005.0,17,16005.0,16010.0,15995.0,15995.0,177,1,15990,27,15995,9
2016-06-22 09:33:00,09:33:07,09:33:54,17043,17230,15990.0,11,15995.0,23,15990.0,15995.0,15985.0,15995.0,163,1,15990,21,15995,7
2016-06-22 09:34:00,09:34:07,09:34:48,17250,17369,15990.0,22,15995.0,7,15995.0,16000.0,15990.0,15995.0,82,-24,15990,23,15995,12
2016-06-22 09:35:00,09:35:01,09:35:58,17393,17512,15990.0,20,15995.0,15,15995.0,16000.0,15995.0,15995.0,45,3,15990,27,16000,25
2016-06-22 09:36:00,09:36:07,09:36:48,17526,17653,15995.0,12,16000.0,21,15995.0,15995.0,15980.0,15980.0,128,-73,15975,38,15985,23
2016-06-22 09:37:00,09:37:05,09:37:56,17681,17832,15975.0,20,15980.0,27,15975.0,15975.0,15970.0,15975.0,107,-60,15975,12,15980,25
2016-06-22 09:38:00,09:38:05,09:38:51,17849,18011,15975.0,18,15980.0,26,15975.0,15980.0,15970.0,15970.0,115,15,15965,32,15975,25
2016-06-22 09:39:00,09:39:13,09:39:59,18052,18225,15970.0,24,15975.0,11,15970.0,15970.0,15955.0,15955.0,140,-34,15955,8,15960,29
2016-06-22 09:40:00,09:40:00,09:40:54,18229,18457,15955.0,6,15960.0,29,15955.0,15960.0,15945.0,15955.0,179,-41,15950,37,15960,27
2016-06-22 09:41:00,09:41:03,09:41:52,18473,18635,15955.0,27,15960.0,18,15960.0,15975.0,15960.0,15970.0,120,79,15965,28,15970,4
2016-06-22 09:42:00,09:42:08,09:42:58,18664,18767,15965.0,22,15970.0,11,15970.0,15975.0,15970.0,15975.0,28,20,15975,30,15980,20
2016-06-22 09:43:00,09:43:03,09:43:54,18777,18928,15975.0,32,15980.0,17,15975.0,15990.0,15970.0,15980.0,112,-54,15980,20,15985,18
2016-06-22 09:44:00,09:44:06,09:44:46,18948,19045,15980.0,7,15985.0,25,15980.0,15980.0,15970.0,15970.0,56,0,15970,20,15975,16
2016-06-22 09:45:00,09:45:02,09:45:43,19065,19195,15970.0,22,15975.0,19,15975.0,15985.0,15975.0,15980.0,119,69,15980,21,15985,19
2016-06-22 09:46:00,09:46:14,09:46:48,19219,19300,15980.0,7,15985.0,26,15980.0,15980.0,15975.0,15980.0,44,-22,15975,26,15980,43
2016-06-22 09:47:00,09:47:11,09:47:41,19314,19378,15975.0,19,15980.0,50,15975.0,15980.0,15975.0,15980.0,91,41,15980,17,15985,33
2016-06-22 09:48:00,09:48:01,09:48:56,19386,19500,15980.0,15,15985.0,36,15980.0,15990.0,15980.0,15985.0,92,4,15985,16,15990,21
2016-06-22 09:49:00,09:49:04,09:49:57,19509,19639,15985.0,8,15990.0,26,15985.0,15990.0,15985.0,15990.0,130,-66,15985,27,15990,11
2016-06-22 09:50:00,09:50:02,09:50:26,19644,19698,15985.0,26,15990.0,11,15990.0,15990.0,15985.0,15985.0,48,-14,15985,10,15990,27
2016-06-22 09:51:00,09:51:06,09:51:59,19737,19872,15985.0,10,15990.0,27,15985.0,15985.0,15975.0,15975.0,115,-32,15970,35,15975,7
2016-06-22 09:52:00,09:52:00,09:52:50,19876,19960,15970.0,35,15975.0,6,15975.0,15980.0,15970.0,15980.0,27,-11,15975,25,15980,9
2016-06-22 09:53:00,09:53:00,09:53:56,19978,20051,15975.0,13,15980.0,28,15975.0,15980.0,15975.0,15980.0,29,1,15975,36,15980,10
2016-06-22 09:54:00,09:54:08,09:54:49,20067,20151,15975.0,28,15980.0,12,15980.0,15985.0,15975.0,15980.0,31,-11,15975,73,15980,25
2016-06-22 09:55:00,09:55:30,09:55:51,20178,20221,15975.0,59,15980.0,39,15975.0,15975.0,15970.0,15970.0,63,-63,15965,20,15970,21
2016-06-22 09:56:00,09:56:14,09:56:59,20251,20390,15965.0,17,15970.0,26,15965.0,15975.0,15965.0,15975.0,102,-5,15970,25,15975,3
2016-06-22 09:57:00,09:57:00,09:57:44,20391,20499,15970.0,28,15975.0,8,15975.0,15975.0,15970.0,15970.0,65,-23,15970,5,15975,36
2016-06-22 09:58:00,09:58:12,09:58:46,20523,20648,15970.0,14,15975.0,33,15970.0,15995.0,15970.0,15990.0,110,53,15985,14,15990,37
2016-06-22 09:59:00,09:59:06,09:59:59,20672,20757,15985.0,19,15990.0,32,15990.0,15990.0,15985.0,15990.0,46,30,15985,25,15990,7
2016-06-22 10:00:00,10:00:02,10:00:54,20763,20882,15985.0,24,15990.0,5,15990.0,15995.0,15990.0,15995.0,61,25,15990,7,15990,9
2016-06-22 10:01:00,10:01:00,10:01:54,20884,20996,15990.0,7,15995.0,22,15990.0,15990.0,15980.0,15980.0,67,-24,15980,1,15985,37
2016-06-22 10:02:00,10:02:24,10:02:59,21021,21073,15980.0,16,15985.0,28,15985.0,15985.0,15970.0,15970.0,22,-6,15970,16,15975,10
2016-06-22 10:03:00,10:03:04,10:03:29,21080,21159,15970.0,15,15975.0,11,15970.0,15975.0,15970.0,15975.0,36,24,15970,23,15975,17
2016-06-22 10:04:00,10:04:11,10:04:59,21197,21308,15970.0,18,15975.0,17,15970.0,15970.0,15965.0,15965.0,69,25,15960,25,15970,27
2016-06-22 10:05:00,10:05:15,10:05:46,21330,21406,15960.0,25,15965.0,6,15965.0,15975.0,15965.0,15970.0,35,23,15970,22,15975,19
2016-06-22 10:06:00,10:06:01,10:06:54,21422,21517,15970.0,22,15975.0,21,15975.0,15975.0,15960.0,15960.0,44,-31,15960,26,15965,9
2016-06-22 10:07:00,10:07:00,10:07:56,21524,21593,15960.0,29,15965.0,3,15965.0,15970.0,15960.0,15965.0,59,9,15965,30,15970,19
2016-06-22 10:08:00,10:08:06,10:08:58,21607,21719,15965.0,23,15970.0,24,15970.0,15975.0,15965.0,15975.0,52,12,15975,10,15980,26
2016-06-22 10:09:00,10:09:01,10:09:56,21727,21860,15975.0,32,15980.0,8,15980.0,15980.0,15960.0,15960.0,62,0,15960,14,15965,27
2016-06-22 10:10:00,10:10:05,10:10:57,21872,21972,15960.0,18,15965.0,21,15960.0,15965.0,15960.0,15965.0,66,-8,15960,21,15965,6
2016-06-22 10:11:00,10:11:21,10:11:59,22004,22110,15960.0,14,15965.0,27,15960.0,15965.0,15960.0,15960.0,105,-33,15960,111,15965,32
2016-06-22 10:12:00,10:12:05,10:12:37,22120,22157,15960.0,109,15965.0,54,15960.0,15960.0,15960.0,15960.0,3,-3,15960,108,15965,37
2016-06-22 10:13:00,10:13:02,10:13:46,22167,22203,15960.0,107,15965.0,38,15960.0,15965.0,15960.0,15965.0,6,2,15960,109,15965,35
2016-06-22 10:14:00,10:14:04,10:14:56,22212,22271,15960.0,108,15965.0,34,15965.0,15965.0,15955.0,15955.0,125,-119,15950,32,15960,47
2016-06-22 10:15:00,10:15:01,10:15:35,22282,22369,15950.0,27,15955.0,8,15955.0,15960.0,15950.0,15960.0,64,16,15955,34,15965,45
2016-06-22 10:16:00,10:16:25,10:16:45,22418,22468,15955.0,34,15960.0,25,15960.0,15960.0,15960.0,15960.0,45,19,15955,35,15960,1
2016-06-22 10:17:00,10:17:00,10:17:00,0,0,0.0,0,0.0,0,15960.0,15960.0,15960.0,15960.0,0,0,0,0,0,0
2016-06-22 10:18:00,10:18:07,10:18:33,22532,22593,15955.0,8,15960.0,45,15955.0,15955.0,15955.0,15955.0,31,-17,15950,26,15960,47
2016-06-22 10:19:00,10:19:45,10:19:55,22644,22663,15955.0,23,15960.0,33,15960.0,15960.0,15955.0,15955.0,15,3,15950,20,15955,16
2016-06-22 10:20:00,10:20:13,10:20:58,22705,22835,15950.0,5,15955.0,31,15950.0,15950.0,15940.0,15940.0,94,-32,15935,29,15940,3
2016-06-22 10:21:00,10:21:01,10:21:57,22847,23035,15935.0,21,15940.0,22,15940.0,15950.0,15930.0,15950.0,88,24,15945,39,15950,19
2016-06-22 10:22:00,10:22:02,10:22:59,23047,23188,15945.0,39,15950.0,18,15950.0,15955.0,15945.0,15950.0,84,16,15945,30,15950,12
2016-06-22 10:23:00,10:23:20,10:23:51,23214,23260,15945.0,25,15950.0,8,15950.0,15950.0,15945.0,15945.0,20,4,15945,10,15950,29
2016-06-22 10:24:00,10:24:03,10:24:38,23276,23335,15945.0,29,15950.0,4,15950.0,15950.0,15950.0,15950.0,28,2,15950,19,15955,24
2016-06-22 10:25:00,10:25:02,10:25:54,23362,23511,15950.0,31,15955.0,13,15955.0,15970.0,15955.0,15965.0,104,70,15960,27,15965,9
2016-06-22 10:26:00,10:26:12,10:26:58,23536,23599,15960.0,21,15965.0,18,15965.0,15965.0,15955.0,15955.0,18,-16,15950,21,15955,29
2016-06-22 10:27:00,10:27:01,10:27:08,23607,23625,15950.0,16,15955.0,32,15950.0,15955.0,15950.0,15955.0,12,8,15955,3,15960,40
2016-06-22 10:28:00,10:28:01,10:28:59,23670,23887,15955.0,7,15960.0,37,15955.0,15955.0,15945.0,15945.0,192,11,15940,31,15945,2
2016-06-22 10:29:00,10:29:05,10:29:59,23896,24037,15945.0,9,15950.0,44,15945.0,15960.0,15945.0,15955.0,118,11,15955,18,15960,33
2016-06-22 10:30:00,10:30:06,10:30:31,24050,24119,15955.0,13,15960.0,31,15960.0,15965.0,15955.0,15965.0,38,8,15960,24,15965,13
2016-06-22 10:31:00,10:31:19,10:31:59,24157,24252,15960.0,13,15965.0,42,15960.0,15960.0,15955.0,15960.0,57,24,15955,28,15965,36
2016-06-22 10:32:00,10:32:40,10:32:48,24269,24289,15955.0,26,15960.0,13,15960.0,15965.0,15960.0,15965.0,11,11,15960,22,15965,26
2016-06-22 10:33:00,10:33:01,10:33:42,24302,24350,15960.0,28,15965.0,17,15965.0,15965.0,15965.0,15965.0,43,-3,15965,11,15970,25
2016-06-22 10:34:00,10:34:04,10:34:21,24358,24368,15965.0,24,15970.0,13,15970.0,15970.0,15970.0,15970.0,5,5,15965,29,15970,14
2016-06-22 10:35:00,10:35:25,10:35:52,24394,24407,15965.0,22,15970.0,28,15965.0,15970.0,15965.0,15970.0,3,-1,15965,23,15970,22
2016-06-22 10:36:00,10:36:55,10:36:55,24430,24431,15965.0,17,15970.0,26,15965.0,15965.0,15965.0,15965.0,2,-2,15965,19,15970,27
2016-06-22 10:37:00,10:37:14,10:37:32,24442,24509,15965.0,19,15970.0,28,15970.0,15970.0,15970.0,15970.0,45,7,15970,18,15975,24
2016-06-22 10:38:00,10:38:07,10:38:53,24526,24632,15970.0,50,15975.0,10,15975.0,15980.0,15975.0,15980.0,82,24,15975,23,15980,12
2016-06-22 10:39:00,10:39:09,10:39:55,24649,24708,15975.0,29,15980.0,13,15980.0,15980.0,15975.0,15975.0,26,-10,15975,19,15980,19
2016-06-22 10:40:00,10:40:06,10:40:59,24722,24762,15975.0,29,15980.0,18,15980.0,15980.0,15975.0,15980.0,26,20,15980,5,15985,29
2016-06-22 10:41:00,10:41:00,10:41:33,24766,24834,15980.0,5,15985.0,27,15980.0,15985.0,15975.0,15975.0,51,33,15975,25,15980,1
2016-06-22 10:42:00,10:42:04,10:42:18,24855,24892,15975.0,19,15980.0,13,15980.0,15980.0,15980.0,15980.0,25,25,15975,15,15980,17
2016-06-22 10:43:00,10:43:35,10:43:45,24929,24948,15975.0,12,15980.0,47,15975.0,15975.0,15975.0,15975.0,18,-2,15975,12,15980,14
2016-06-22 10:44:00,10:44:00,10:44:00,0,0,0.0,0,0.0,0,15975.0,15975.0,15975.0,15975.0,0,0,0,0,0,0
2016-06-22 10:45:00,10:45:20,10:45:49,25009,25066,15975.0,33,15980.0,11,15980.0,15990.0,15980.0,15990.0,42,42,15985,37,15990,11
2016-06-22 10:46:00,10:46:09,10:46:59,25080,25168,15985.0,37,15990.0,12,15990.0,15995.0,15990.0,15995.0,95,93,15995,54,16000,44
2016-06-22 10:47:00,10:47:03,10:47:58,25176,25260,15995.0,59,16000.0,41,16000.0,16000.0,15995.0,15995.0,122,-75,15990,15,15995,17
2016-06-22 10:48:00,10:48:06,10:48:37,25264,25334,15990.0,96,15995.0,23,15995.0,15995.0,15990.0,15995.0,115,-81,15995,15,16000,88
2016-06-22 10:49:00,10:49:00,10:49:59,25344,25394,15995.0,9,16000.0,88,15995.0,16000.0,15995.0,15995.0,36,-2,15990,31,15995,4
2016-06-22 10:50:00,10:50:13,10:50:33,25407,25427,15990.0,31,15995.0,7,15995.0,16000.0,15995.0,15995.0,16,14,15990,30,16000,70
2016-06-22 10:51:00,10:51:04,10:51:31,25446,25459,15990.0,30,15995.0,1,15995.0,15995.0,15995.0,15995.0,8,-2,15995,29,16000,69
2016-06-22 10:52:00,10:52:03,10:52:03,25465,25465,15995.0,31,16000.0,70,15995.0,15995.0,15995.0,15995.0,1,-1,15995,30,16000,69
2016-06-22 10:53:00,10:53:44,10:53:44,25490,25490,15995.0,30,16000.0,71,15995.0,15995.0,15995.0,15995.0,2,-2,15995,27,16000,70
2016-06-22 10:54:00,10:54:54,10:54:57,25510,25552,15995.0,27,16000.0,73,15995.0,16000.0,15995.0,15995.0,86,2,15990,32,16000,59
2016-06-22 10:55:00,10:55:11,10:55:58,25558,25594,15990.0,31,16000.0,62,16000.0,16000.0,15995.0,15995.0,27,22,15990,31,15995,14
2016-06-22 10:56:00,10:56:00,10:56:51,25599,25636,15990.0,31,15995.0,15,15995.0,16000.0,15995.0,16000.0,33,31,15995,26,16000,40
2016-06-22 10:57:00,10:57:13,10:57:58,25647,25691,15990.0,32,15995.0,3,15995.0,16000.0,15995.0,15995.0,20,16,15995,17,16000,31
2016-06-22 10:58:00,10:58:00,10:58:00,0,0,0.0,0,0.0,0,15995.0,15995.0,15995.0,15995.0,0,0,0,0,0,0
2016-06-22 10:59:00,10:59:05,10:59:54,25728,25810,15995.0,24,16000.0,26,16000.0,16005.0,16000.0,16005.0,84,68,16000,28,16005,1
2016-06-22 11:00:00,11:00:00,11:00:59,25821,26034,16000.0,28,16005.0,7,16005.0,16015.0,16005.0,16015.0,213,-62,16015,4,16020,32
2016-06-22 11:01:00,11:01:00,11:01:56,26037,26152,16015.0,4,16020.0,32,16015.0,16020.0,16010.0,16015.0,67,5,16015,12,16020,29
2016-06-22 11:02:00,11:02:25,11:02:56,26177,26323,16015.0,19,16020.0,25,16015.0,16020.0,16010.0,16010.0,152,25,16010,19,16015,35
2016-06-22 11:03:00,11:03:12,11:03:43,26332,26358,16010.0,22,16015.0,34,16015.0,16015.0,16015.0,16015.0,28,28,16015,32,16020,24
2016-06-22 11:04:00,11:04:02,11:04:51,26380,26449,16015.0,19,16020.0,22,16015.0,16015.0,16010.0,16010.0,58,-52,16010,4,16015,38
2016-06-22 11:05:00,11:05:47,11:05:54,26510,26526,16010.0,6,16015.0,28,16010.0,16010.0,16010.0,16010.0,28,-27,16010,6,16015,31
2016-06-22 11:06:00,11:06:20,11:06:48,26542,26582,16010.0,11,16015.0,30,16010.0,16010.0,16010.0,16010.0,33,-32,16010,3,16015,31
2016-06-22 11:07:00,11:07:13,11:07:52,26604,26644,16010.0,23,16015.0,24,16015.0,16015.0,16015.0,16015.0,26,18,16010,35,16020,25
2016-06-22 11:08:00,11:08:18,11:08:18,26666,26668,16015.0,10,16020.0,27,16015.0,16015.0,16015.0,16015.0,4,-4,16010,33,16015,10
2016-06-22 11:09:00,11:09:00,11:09:00,0,0,0.0,0,0.0,0,16015.0,16015.0,16015.0,16015.0,0,0,0,0,0,0
2016-06-22 11:10:00,11:10:05,11:10:05,26734,26734,16010.0,34,16015.0,30,16015.0,16015.0,16015.0,16015.0,1,1,16010,37,16015,28
2016-06-22 11:11:00,11:11:00,11:11:00,0,0,0.0,0,0.0,0,16015.0,16015.0,16015.0,16015.0,0,0,0,0,0,0
2016-06-22 11:12:00,11:12:05,11:12:55,26787,26852,16010.0,41,16015.0,33,16015.0,16015.0,16015.0,16015.0,53,33,16015,3,16020,26
2016-06-22 11:13:00,11:13:15,11:13:54,26872,26932,16015.0,5,16020.0,26,16015.0,16015.0,16015.0,16015.0,20,-20,16010,28,16015,10
2016-06-22 11:14:00,11:14:04,11:14:57,26939,27105,16010.0,33,16015.0,8,16015.0,16020.0,16015.0,16020.0,108,73,16015,23,16020,17
2016-06-22 11:15:00,11:15:02,11:15:55,27110,27261,16015.0,24,16020.0,12,16020.0,16020.0,16020.0,16020.0,93,-39,16020,8,16025,29
2016-06-22 11:16:00,11:16:07,11:16:54,27275,27348,16020.0,8,16025.0,29,16020.0,16020.0,16015.0,16015.0,34,-17,16010,29,16015,11
2016-06-22 11:17:00,11:17:28,11:17:36,27363,27383,16010.0,30,16015.0,14,16015.0,16015.0,16015.0,16015.0,24,16,16010,25,16015,11
2016-06-22 11:18:00,11:18:45,11:18:52,27406,27433,16010.0,24,16015.0,22,16015.0,16015.0,16015.0,16015.0,33,29,16010,27,16015,19
2016-06-22 11:19:00,11:19:04,11:19:31,27444,27525,16010.0,22,16015.0,22,16015.0,16020.0,16015.0,16020.0,122,99,16020,24,16025,20
2016-06-22 11:20:00,11:20:16,11:20:40,27559,27596,16020.0,27,16025.0,10,16020.0,16025.0,16020.0,16025.0,18,8,16020,25,16025,11
2016-06-22 11:21:00,11:21:19,11:21:44,27630,27707,16020.0,26,16025.0,16,16020.0,16020.0,16020.0,16020.0,52,-14,16015,26,16025,28
2016-06-22 11:22:00,11:22:26,11:22:58,27754,27783,16015.0,23,16020.0,17,16015.0,16015.0,16010.0,16010.0,27,-27,16010,40,16015,14
2016-06-22 11:23:00,11:23:13,11:23:37,27793,27826,16010.0,45,16015.0,8,16010.0,16015.0,16010.0,16015.0,27,-7,16010,35,16015,3
2016-06-22 11:24:00,11:24:10,11:24:25,27853,27868,16010.0,35,16015.0,6,16010.0,16015.0,16010.0,16010.0,5,-1,16010,32,16015,12
2016-06-22 11:25:00,11:25:13,11:25:56,27893,27940,16010.0,36,16015.0,1,16015.0,16015.0,16015.0,16015.0,26,-22,16010,31,16015,15
2016-06-22 11:26:00,11:26:04,11:26:54,27946,27996,16010.0,51,16015.0,8,16015.0,16020.0,16015.0,16015.0,10,8,16015,14,16020,25
2016-06-22 11:27:00,11:27:02,11:27:28,27998,28032,16015.0,14,16020.0,23,16015.0,16015.0,16015.0,16015.0,18,-14,16015,1,16015,4
2016-06-22 11:28:00,11:28:27,11:28:55,28061,28088,16010.0,50,16015.0,13,16015.0,16015.0,16010.0,16010.0,19,9,16010,35,16015,20
2016-06-22 11:29:00,11:29:25,11:29:31,28108,28113,16010.0,32,16015.0,18,16010.0,16015.0,16010.0,16015.0,2,0,16010,32,16015,19
2016-06-22 11:30:00,11:30:00,11:30:54,28132,28388,16010.0,37,16015.0,13,16010.0,16020.0,16005.0,16005.0,276,-59,16000,31,16010,39
2016-06-22 11:31:00,11:31:08,11:31:55,28412,28561,16000.0,31,16005.0,9,16000.0,16005.0,15995.0,16005.0,149,39,16005,25,16010,16
2016-06-22 11:32:00,11:32:03,11:32:57,28575,28722,16005.0,25,16010.0,25,16005.0,16005.0,16000.0,16005.0,84,-42,16000,33,16005,5
2016-06-22 11:33:00,11:33:00,11:33:48,28725,28766,16000.0,33,16005.0,5,16005.0,16005.0,16005.0,16005.0,8,4,16005,13,16010,23
2016-06-22 11:34:00,11:34:14,11:34:54,28788,28918,16005.0,24,16010.0,20,16010.0,16010.0,16000.0,16000.0,122,0,15995,29,16000,10
2016-06-22 11:35:00,11:35:00,11:35:38,28929,28992,15995.0,23,16000.0,41,15995.0,15995.0,15995.0,15995.0,42,4,15995,9,16000,29
2016-06-22 11:36:00,11:36:09,11:36:12,29009,29024,15995.0,7,16000.0,30,15995.0,15995.0,15995.0,15995.0,14,0,15995,5,16000,30
2016-06-22 11:37:00,11:37:11,11:37:20,29061,29089,15995.0,6,16000.0,30,15995.0,15995.0,15995.0,15995.0,21,8,15995,5,16000,28
2016-06-22 11:38:00,11:38:02,11:38:59,29129,29261,15995.0,20,16000.0,28,16000.0,16020.0,16000.0,16020.0,92,88,16015,33,16020,17
2016-06-22 11:39:00,11:39:00,11:39:51,29264,29376,16015.0,33,16020.0,17,16020.0,16020.0,16010.0,16015.0,72,-36,16015,7,16020,23
2016-06-22 11:40:00,11:40:00,11:40:57,29389,29504,16015.0,15,16020.0,24,16020.0,16020.0,16015.0,16020.0,120,48,16015,32,16020,15
2016-06-22 11:41:00,11:41:00,11:41:32,29511,29652,16015.0,26,16020.0,25,16020.0,16030.0,16020.0,16025.0,157,-4,16025,8,16030,73
2016-06-22 11:42:00,11:42:30,11:42:57,29694,29781,16025.0,28,16030.0,101,16030.0,16035.0,16030.0,16035.0,162,130,16030,28,16035,5
2016-06-22 11:43:00,11:43:03,11:43:57,29786,29928,16030.0,33,16035.0,4,16035.0,16035.0,16025.0,16025.0,99,27,16025,6,16030,26
2016-06-22 11:44:00,11:44:05,11:44:59,29939,30006,16020.0,45,16025.0,10,16020.0,16025.0,16020.0,16025.0,28,-12,16020,40,16025,10
2016-06-22 11:45:00,11:45:03,11:45:59,30011,30136,16020.0,42,16025.0,13,16025.0,16030.0,16025.0,16025.0,99,55,16020,46,16030,27
2016-06-22 11:46:00,11:46:03,11:46:39,30144,30206,16020.0,44,16025.0,9,16025.0,16025.0,16025.0,16025.0,30,12,16020,41,16025,10
2016-06-22 11:47:00,11:47:16,11:47:43,30230,30294,16020.0,44,16025.0,24,16025.0,16030.0,16025.0,16030.0,32,32,16025,28,16030,14
2016-06-22 11:48:00,11:48:00,11:48:28,30303,30357,16025.0,24,16030.0,27,16025.0,16025.0,16025.0,16025.0,33,-8,16020,46,16025,10
2016-06-22 11:49:00,11:49:11,11:49:44,30381,30402,16020.0,39,16025.0,23,16025.0,16025.0,16025.0,16025.0,6,6,16020,40,16025,13
2016-06-22 11:50:00,11:50:15,11:50:58,30415,30536,16020.0,36,16025.0,27,16020.0,16020.0,16005.0,16005.0,119,-23,16005,9,16010,27
2016-06-22 11:51:00,11:51:33,11:51:46,30568,30596,16005.0,10,16010.0,35,16005.0,16005.0,16005.0,16005.0,26,8,16005,17,16010,22
2016-06-22 11:52:00,11:52:11,11:52:51,30635,30792,16005.0,19,16010.0,31,16005.0,16005.0,15995.0,16000.0,137,-73,15995,32,16000,20
2016-06-22 11:53:00,11:53:04,11:53:08,30800,30825,15995.0,30,16000.0,19,16000.0,16000.0,16000.0,16000.0,35,-11,16000,9,16005,30
2016-06-22 11:54:00,11:54:07,11:54:40,30867,30902,16000.0,41,16005.0,19,16005.0,16010.0,16005.0,16005.0,16,14,16005,40,16010,27
2016-06-22 11:55:00,11:55:04,11:55:20,30911,30955,16005.0,42,16010.0,27,16005.0,16005.0,16005.0,16005.0,45,-26,16005,7,16010,42
2016-06-22 11:56:00,11:56:13,11:56:45,30997,31076,16005.0,37,16010.0,31,16010.0,16020.0,16010.0,16020.0,60,16,16015,36,16020,22
2016-06-22 11:57:00,11:57:04,11:57:58,31089,31201,16015.0,35,16020.0,23,16020.0,16025.0,16020.0,16020.0,94,46,16015,34,16020,3
2016-06-22 11:58:00,11:58:05,11:58:59,31213,31316,16015.0,17,16020.0,31,16015.0,16015.0,16010.0,16015.0,76,-18,16015,21,16020,20
2016-06-22 11:59:00,11:59:21,11:59:47,31331,31408,16015.0,34,16020.0,6,16020.0,16025.0,16020.0,16020.0,65,-3,16020,14,16025,24
2016-06-22 12:00:00,12:00:21,12:00:58,31431,31525,16020.0,29,16025.0,8,16025.0,16025.0,16025.0,16025.0,45,-16,16020,31,16025,1
2016-06-22 12:01:00,12:01:07,12:01:42,31535,31650,16020.0,32,16025.0,2,16025.0,16025.0,16020.0,16020.0,86,-74,16015,26,16020,5
2016-06-22 12:02:00,12:02:07,12:02:57,31664,31761,16015.0,23,16020.0,11,16020.0,16025.0,16020.0,16020.0,94,89,16015,30,16020,6
2016-06-22 12:03:00,12:03:05,12:03:16,31770,31824,16015.0,13,16020.0,28,16015.0,16020.0,16015.0,16020.0,73,49,16015,29,16020,2
2016-06-22 12:04:00,12:04:23,12:04:45,31877,31935,16015.0,24,16020.0,14,16015.0,16015.0,16015.0,16015.0,48,-38,16015,17,16020,15
2016-06-22 12:05:00,12:05:19,12:05:53,31961,32099,16015.0,35,16020.0,6,16020.0,16035.0,16020.0,16035.0,121,87,16030,28,16035,30
2016-06-22 12:06:00,12:06:00,12:06:53,32106,32219,16030.0,29,16035.0,26,16035.0,16040.0,16030.0,16030.0,85,-37,16025,42,16030,8
2016-06-22 12:07:00,12:07:32,12:07:44,32251,32257,16025.0,44,16030.0,24,16030.0,16030.0,16030.0,16030.0,2,2,16025,48,16030,22
2016-06-22 12:08:00,12:08:02,12:08:03,32267,32273,16025.0,48,16030.0,19,16030.0,16030.0,16030.0,16030.0,12,12,16025,61,16035,30
2016-06-22 12:09:00,12:09:03,12:09:39,32304,32379,16025.0,48,16030.0,26,16025.0,16025.0,16020.0,16025.0,137,47,16020,25,16025,6
2016-06-22 12:10:00,12:10:04,12:10:37,32398,32452,16020.0,31,16025.0,4,16025.0,16025.0,16025.0,16025.0,23,10,16020,25,16025,4
2016-06-22 12:11:00,12:11:38,12:11:59,32500,32561,16020.0,36,16025.0,12,16025.0,16025.0,16025.0,16025.0,46,-20,16020,38,16030,27
2016-06-22 12:12:00,12:12:56,12:12:56,32592,32596,16020.0,39,16025.0,20,16025.0,16025.0,16025.0,16025.0,18,18,16025,14,16030,21
2016-06-22 12:13:00,12:13:21,12:13:44,32629,32649,16025.0,32,16030.0,14,16030.0,16030.0,16025.0,16025.0,7,-5,16020,35,16025,7
2016-06-22 12:14:00,12:14:06,12:14:56,32663,32758,16020.0,41,16025.0,7,16025.0,16025.0,16025.0,16025.0,44,-11,16020,37,16025,3
2016-06-22 12:15:00,12:15:03,12:15:50,32765,32794,16020.0,33,16025.0,2,16025.0,16025.0,16025.0,16025.0,21,-4,16025,9,16030,24
2016-06-22 12:16:00,12:16:57,12:16:57,32838,32841,16025.0,24,16030.0,24,16030.0,16030.0,16030.0,16030.0,2,2,16025,29,16030,12
2016-06-22 12:17:00,12:17:02,12:17:59,32849,32921,16025.0,20,16030.0,24,16030.0,16030.0,16025.0,16030.0,51,-10,16030,11,16035,29
2016-06-22 12:18:00,12:18:35,12:18:56,32954,33010,16030.0,38,16035.0,26,16035.0,16035.0,16035.0,16035.0,52,36,16030,43,16035,2
2016-06-22 12:19:00,12:19:08,12:19:59,33028,33256,16030.0,34,16035.0,18,16035.0,16055.0,16030.0,16055.0,235,131,16050,19,16055,13
2016-06-22 12:20:00,12:20:00,12:20:51,33259,33403,16050.0,19,16055.0,13,16055.0,16060.0,16050.0,16060.0,86,48,16055,64,16060,43
2016-06-22 12:21:00,12:21:21,12:21:58,33436,33552,16055.0,61,16060.0,44,16055.0,16060.0,16050.0,16055.0,144,-17,16050,38,16055,15
2016-06-22 12:22:00,12:22:34,12:22:34,33589,33589,16050.0,38,16055.0,13,16055.0,16055.0,16055.0,16055.0,1,1,16050,35,16055,12
2016-06-22 12:23:00,12:23:01,12:23:31,33625,33739,16050.0,36,16055.0,20,16055.0,16060.0,16050.0,16060.0,145,19,16055,9,16060,20
2016-06-22 12:24:00,12:24:17,12:24:57,33770,33843,16055.0,27,16060.0,12,16060.0,16060.0,16060.0,16060.0,24,22,16060,15,16065,22
2016-06-22 12:25:00,12:25:26,12:25:57,33886,33968,16060.0,30,16065.0,16,16060.0,16065.0,16060.0,16065.0,87,3,16065,3,16070,22
2016-06-22 12:26:00,12:26:21,12:26:59,34008,34088,16065.0,36,16070.0,7,16070.0,16070.0,16065.0,16065.0,48,-20,16060,47,16070,23
2016-06-22 12:27:00,12:27:00,12:27:59,34091,34255,16060.0,49,16070.0,30,16070.0,16075.0,16065.0,16075.0,122,14,16070,46,16080,32
2016-06-22 12:28:00,12:28:00,12:28:57,34256,34370,16070.0,48,16080.0,37,16075.0,16075.0,16075.0,16075.0,59,-23,16075,17,16080,34
2016-06-22 12:29:00,12:29:01,12:29:59,34377,34865,16075.0,17,16080.0,37,16075.0,16100.0,16075.0,16100.0,853,281,16095,29,16100,8
2016-06-22 12:30:00,12:30:02,12:30:59,34871,35147,16095.0,31,16100.0,6,16100.0,16115.0,16095.0,16105.0,363,96,16105,6,16110,28
2016-06-22 12:31:00,12:31:01,12:31:54,35154,35368,16100.0,30,16110.0,32,16105.0,16105.0,16100.0,16100.0,354,-75,16095,47,16105,66
2016-06-22 12:32:00,12:32:00,12:32:55,35378,35526,16095.0,23,16100.0,72,16100.0,16110.0,16095.0,16100.0,275,124,16100,24,16105,30
2016-06-22 12:33:00,12:33:01,12:33:52,35542,35669,16100.0,32,16105.0,25,16100.0,16110.0,16100.0,16110.0,88,27,16105,43,16110,6
2016-06-22 12:34:00,12:34:09,12:34:54,35696,35787,16105.0,24,16110.0,30,16105.0,16105.0,16105.0,16105.0,53,-31,16100,33,16110,32
2016-06-22 12:35:00,12:35:00,12:35:55,35797,36113,16105.0,4,16110.0,30,16105.0,16115.0,16090.0,16090.0,437,-316,16090,13,16095,28
2016-06-22 12:36:00,12:36:11,12:36:53,36134,36333,16090.0,17,16095.0,28,16090.0,16095.0,16085.0,16085.0,165,-37,16085,25,16090,19
2016-06-22 12:37:00,12:37:00,12:37:59,36346,36482,16085.0,28,16090.0,13,16090.0,16090.0,16085.0,16090.0,81,19,16085,27,16090,14
2016-06-22 12:38:00,12:38:00,12:38:58,36486,36685,16085.0,26,16090.0,14,16085.0,16095.0,16080.0,16095.0,163,55,16095,19,16100,9
2016-06-22 12:39:00,12:39:00,12:39:51,36689,36903,16095.0,30,16100.0,9,16100.0,16110.0,16100.0,16100.0,199,13,16100,42,16105,10
2016-06-22 12:40:00,12:40:07,12:40:54,36918,37028,16100.0,36,16105.0,10,16105.0,16105.0,16090.0,16100.0,79,-21,16095,35,16100,4
2016-06-22 12:41:00,12:41:13,12:41:57,37051,37152,16095.0,31,16100.0,13,16100.0,16105.0,16100.0,16105.0,51,-33,16100,26,16105,10
2016-06-22 12:42:00,12:42:22,12:42:50,37178,37238,16105.0,7,16110.0,27,16105.0,16105.0,16100.0,16105.0,24,-8,16105,8,16110,23
2016-06-22 12:43:00,12:43:01,12:43:57,37248,37329,16105.0,6,16110.0,24,16105.0,16105.0,16100.0,16105.0,25,-11,16105,14,16110,24
2016-06-22 12:44:00,12:44:00,12:44:53,37334,37456,16105.0,9,16110.0,25,16105.0,16105.0,16100.0,16100.0,43,-32,16100,32,16105,3
2016-06-22 12:45:00,12:45:01,12:45:58,37464,37597,16100.0,25,16105.0,11,16100.0,16100.0,16095.0,16095.0,63,-41,16095,1,16100,27
2016-06-22 12:46:00,12:46:11,12:46:59,37606,37716,16095.0,4,16100.0,25,16095.0,16095.0,16095.0,16095.0,105,-42,16095,4,16100,25
2016-06-22 12:47:00,12:47:21,12:47:54,37729,37764,16095.0,53,16100.0,6,16100.0,16100.0,16095.0,16095.0,6,-2,16095,21,16100,20
2016-06-22 12:48:00,12:48:20,12:48:53,37779,37912,16095.0,20,16100.0,29,16095.0,16095.0,16080.0,16080.0,110,-36,16080,31,16085,10
2016-06-22 12:49:00,12:49:23,12:49:45,37942,37998,16080.0,37,16085.0,12,16080.0,16080.0,16080.0,16080.0,61,-20,16080,28,16085,35
2016-06-22 12:50:00,12:50:02,12:50:58,38016,38189,16080.0,41,16085.0,21,16085.0,16085.0,16075.0,16075.0,189,-87,16075,27,16080,22
2016-06-22 12:51:00,12:51:05,12:51:59,38199,38325,16075.0,32,16080.0,17,16080.0,16080.0,16075.0,16075.0,88,-16,16075,11,16080,35
2016-06-22 12:52:00,12:52:06,12:52:59,38335,38396,16075.0,15,16080.0,31,16075.0,16075.0,16075.0,16075.0,22,-20,16075,9,16080,32
2016-06-22 12:53:00,12:53:18,12:53:59,38404,38446,16075.0,13,16080.0,37,16075.0,16075.0,16075.0,16075.0,24,-24,16075,5,16080,32
2016-06-22 12:54:00,12:54:13,12:54:30,38455,38493,16075.0,8,16080.0,33,16075.0,16075.0,16075.0,16075.0,24,-22,16075,7,16080,21
2016-06-22 12:55:00,12:55:00,12:55:43,38516,38576,16075.0,21,16080.0,18,16075.0,16085.0,16075.0,16085.0,18,0,16085,2,16090,47
2016-06-22 12:56:00,12:56:30,12:56:56,38593,38623,16085.0,21,16090.0,36,16085.0,16085.0,16080.0,16080.0,15,-15,16080,21,16085,32
2016-06-22 12:57:00,12:57:00,12:57:46,38628,38673,16080.0,25,16085.0,28,16080.0,16090.0,16080.0,16090.0,24,8,16085,35,16090,26
2016-06-22 12:58:00,12:58:10,12:58:45,38688,38736,16085.0,37,16090.0,29,16085.0,16085.0,16080.0,16080.0,40,0,16080,30,16085,9
2016-06-22 12:59:00,12:59:01,12:59:36,38754,38808,16080.0,29,16085.0,15,16080.0,16085.0,16080.0,16085.0,28,10,16085,21,16090,22
2016-06-22 13:00:00,13:00:00,13:00:58,38824,38972,16085.0,29,16090.0,22,16090.0,16095.0,16090.0,16090.0,94,12,16085,23,16090,9
2016-06-22 13:01:00,13:01:01,13:01:47,38976,39072,16085.0,23,16090.0,12,16085.0,16085.0,16075.0,16075.0,74,-20,16070,38,16075,17
2016-06-22 13:02:00,13:02:02,13:02:41,39093,39154,16070.0,37,16075.0,16,16070.0,16075.0,16070.0,16075.0,42,30,16070,39,16075,19
2016-06-22 13:03:00,13:03:02,13:03:59,39169,39428,16070.0,42,16075.0,20,16070.0,16070.0,16050.0,16050.0,323,-126,16050,9,16055,35
2016-06-22 13:04:00,13:04:00,13:04:52,39433,39603,16050.0,10,16055.0,32,16050.0,16050.0,16050.0,16050.0,118,-14,16050,6,16055,27
2016-06-22 13:05:00,13:05:00,13:05:59,39616,39745,16050.0,2,16055.0,37,16050.0,16055.0,16045.0,16050.0,67,-7,16050,22,16055,26
2016-06-22 13:06:00,13:06:00,13:06:57,39747,39813,16050.0,22,16055.0,29,16050.0,16055.0,16050.0,16055.0,45,29,16050,48,16060,62
2016-06-22 13:07:00,13:07:14,13:07:40,39831,39868,16050.0,43,16055.0,17,16055.0,16055.0,16055.0,16055.0,11,9,16055,20,16060,30
2016-06-22 13:08:00,13:08:30,13:08:30,39905,39915,16055.0,20,16060.0,32,16055.0,16055.0,16055.0,16055.0,20,-20,16050,32,16055,30
2016-06-22 13:09:00,13:09:16,13:09:59,39953,40069,16050.0,31,16055.0,35,16050.0,16050.0,16050.0,16050.0,154,-8,16040,40,16045,30
2016-06-22 13:10:00,13:10:00,13:10:54,40070,40279,16050.0,4,16055.0,42,16050.0,16050.0,16040.0,16045.0,206,-26,16040,41,16045,13
2016-06-22 13:11:00,13:11:08,13:11:44,40300,40375,16040.0,37,16045.0,13,16045.0,16045.0,16045.0,16045.0,41,-3,16040,28,16045,19
2016-06-22 13:12:00,13:12:32,13:12:48,40433,40469,16040.0,20,16045.0,36,16040.0,16045.0,16040.0,16040.0,22,12,16040,32,16045,15
2016-06-22 13:13:00,13:13:12,13:13:12,40503,40503,16040.0,31,16045.0,26,16040.0,16040.0,16040.0,16040.0,1,-1,16040,30,16045,25
2016-06-22 13:14:00,13:14:01,13:14:56,40520,40672,16040.0,34,16045.0,20,16045.0,16045.0,16030.0,16035.0,144,-112,16030,36,16035,5
2016-06-22 13:15:00,13:15:15,13:15:24,40688,40723,16030.0,36,16035.0,12,16035.0,16035.0,16035.0,16035.0,26,18,16030,26,16035,22
2016-06-22 13:16:00,13:16:53,13:16:54,40770,40815,16030.0,35,16035.0,31,16030.0,16030.0,16030.0,16030.0,111,-19,16025,41,16030,2
2016-06-22 13:17:00,13:17:10,13:17:56,40830,41065,16025.0,23,16030.0,27,16025.0,16025.0,16010.0,16015.0,482,-89,16010,39,16020,62
2016-06-22 13:18:00,13:18:03,13:18:56,41079,41446,16015.0,13,16020.0,51,16015.0,16015.0,16005.0,16005.0,420,-52,16005,18,16010,35
2016-06-22 13:19:00,13:19:36,13:19:53,41497,41542,16005.0,34,16010.0,21,16005.0,16005.0,16005.0,16005.0,49,-47,16000,33,16005,38
2016-06-22 13:20:00,13:20:03,13:20:56,41556,41847,16000.0,23,16005.0,58,16000.0,16000.0,15985.0,16000.0,465,-87,16000,2,16005,56
2016-06-22 13:21:00,13:21:02,13:21:59,41865,42092,16000.0,11,16005.0,46,16000.0,16010.0,16000.0,16010.0,221,51,16005,36,16010,13
2016-06-22 13:22:00,13:22:00,13:22:58,42097,42251,16005.0,37,16010.0,12,16010.0,16015.0,16010.0,16015.0,143,-13,16010,9,16015,59
2016-06-22 13:23:00,13:23:06,13:23:59,42257,42432,16010.0,14,16015.0,62,16010.0,16010.0,16010.0,16010.0,114,12,16010,3,16015,48
2016-06-22 13:24:00,13:24:04,13:24:58,42442,42599,16010.0,16,16015.0,37,16010.0,16015.0,16010.0,16010.0,91,-11,16005,31,16010,19
2016-06-22 13:25:00,13:25:02,13:25:56,42610,42965,16005.0,36,16010.0,8,16010.0,16020.0,15995.0,15995.0,455,-324,15995,15,16000,19
2016-06-22 13:26:00,13:26:00,13:26:59,42973,43185,15995.0,15,16000.0,28,15995.0,15995.0,15985.0,15990.0,134,-28,15990,21,15995,19
2016-06-22 13:27:00,13:27:10,13:27:34,43196,43315,15990.0,28,15995.0,12,15995.0,16000.0,15995.0,16000.0,94,66,15995,32,16005,38
2016-06-22 13:28:00,13:28:00,13:28:56,43348,43467,16000.0,42,16005.0,24,16005.0,16010.0,16005.0,16010.0,89,51,16005,37,16015,33
2016-06-22 13:29:00,13:29:00,13:29:35,43472,43527,16010.0,4,16015.0,33,16015.0,16015.0,16005.0,16005.0,36,-24,16000,33,16005,17
2016-06-22 13:30:00,13:30:00,13:30:43,43559,43662,16000.0,34,16005.0,14,16000.0,16005.0,16000.0,16005.0,52,-8,16000,43,16010,28
2016-06-22 13:31:00,13:31:00,13:31:30,43689,43771,16000.0,30,16005.0,24,16000.0,16000.0,15995.0,15995.0,84,-68,15995,4,16000,21
2016-06-22 13:32:00,13:32:00,13:32:56,43788,43897,15995.0,15,16000.0,22,15995.0,16005.0,15995.0,16005.0,73,-11,16000,22,16005,15
2016-06-22 13:33:00,13:33:17,13:33:45,43917,43983,16000.0,28,16005.0,5,16005.0,16010.0,16005.0,16010.0,53,-11,16005,17,16010,43
2016-06-22 13:34:00,13:34:00,13:34:53,43998,44087,16005.0,13,16010.0,29,16005.0,16010.0,16005.0,16010.0,42,-18,16010,20,16015,25
2016-06-22 13:35:00,13:35:08,13:35:58,44110,44271,16010.0,25,16015.0,13,16015.0,16020.0,16015.0,16015.0,112,1,16015,8,16020,31
2016-06-22 13:36:00,13:36:01,13:36:54,44276,44387,16015.0,9,16020.0,31,16015.0,16015.0,16010.0,16015.0,58,-34,16015,7,16020,22
2016-06-22 13:37:00,13:37:00,13:37:58,44395,44483,16015.0,26,16020.0,11,16020.0,16020.0,16015.0,16020.0,26,10,16020,29,16025,8
2016-06-22 13:38:00,13:38:00,13:38:57,44490,44709,16020.0,40,16025.0,5,16025.0,16035.0,16025.0,16030.0,227,62,16025,28,16030,24
2016-06-22 13:39:00,13:39:11,13:39:56,44721,44806,16025.0,29,16030.0,23,16025.0,16025.0,16025.0,16025.0,53,-39,16025,29,16030,20
2016-06-22 13:40:00,13:40:11,13:40:40,44832,44907,16025.0,28,16030.0,16,16030.0,16030.0,16025.0,16030.0,63,29,16025,25,16030,11
2016-06-22 13:41:00,13:41:05,13:41:39,44922,44982,16025.0,33,16030.0,12,16030.0,16030.0,16025.0,16025.0,30,-4,16025,15,16030,26
2016-06-22 13:42:00,13:42:06,13:42:55,45016,45060,16025.0,41,16030.0,17,16025.0,16025.0,16025.0,16025.0,42,-42,16020,44,16025,5
2016-06-22 13:43:00,13:43:01,13:43:46,45071,45149,16020.0,47,16025.0,4,16025.0,16030.0,16025.0,16030.0,55,43,16025,17,16030,26
2016-06-22 13:44:00,13:44:21,13:44:51,45183,45237,16025.0,22,16030.0,29,16030.0,16030.0,16025.0,16025.0,38,26,16025,30,16030,35
2016-06-22 13:45:00,13:45:12,13:45:59,45257,45445,16025.0,30,16030.0,26,16030.0,16055.0,16030.0,16045.0,163,91,16040,29,16045,12
2016-06-22 13:46:00,13:46:00,13:46:44,45448,45558,16040.0,29,16045.0,12,16045.0,16050.0,16045.0,16045.0,100,20,16045,27,16050,94
2016-06-22 13:47:00,13:47:03,13:47:55,45572,45696,16045.0,33,16050.0,74,16050.0,16055.0,16050.0,16055.0,190,178,16050,147,16055,10
2016-06-22 13:48:00,13:48:09,13:48:58,45710,45931,16050.0,148,16055.0,13,16055.0,16055.0,16040.0,16040.0,230,-138,16035,50,16040,17
2016-06-22 13:49:00,13:49:04,13:49:24,45945,46020,16035.0,39,16040.0,39,16040.0,16050.0,16040.0,16050.0,71,35,16045,23,16050,15
2016-06-22 13:50:00,13:50:00,13:50:57,46057,46200,16045.0,20,16050.0,30,16045.0,16045.0,16045.0,16045.0,69,-41,16040,42,16050,81
2016-06-22 13:51:00,13:51:00,13:51:58,46205,46329,16045.0,3,16050.0,82,16045.0,16045.0,16040.0,16045.0,67,17,16045,5,16050,78
2016-06-22 13:52:00,13:52:05,13:52:40,46338,46403,16045.0,11,16050.0,70,16045.0,16045.0,16045.0,16045.0,37,-19,16040,35,16045,11
2016-06-22 13:53:00,13:53:00,13:53:51,46431,46542,16040.0,34,16045.0,16,16045.0,16045.0,16040.0,16045.0,57,30,16045,3,16050,74
2016-06-22 13:54:00,13:54:03,13:54:59,46558,46641,16045.0,15,16050.0,70,16050.0,16050.0,16040.0,16045.0,27,1,16040,50,16045,68
2016-06-22 13:55:00,13:55:00,13:55:54,46644,46880,16040.0,50,16045.0,68,16045.0,16055.0,16035.0,16055.0,318,70,16050,36,16055,39
2016-06-22 13:56:00,13:56:04,13:56:54,46891,46992,16050.0,37,16055.0,44,16050.0,16050.0,16040.0,16040.0,70,-52,16040,45,16045,11
2016-06-22 13:57:00,13:57:00,13:57:54,47006,47159,16040.0,34,16045.0,28,16045.0,16045.0,16035.0,16040.0,115,-1,16040,18,16045,42
2016-06-22 13:58:00,13:58:05,13:58:59,47184,47441,16040.0,31,16045.0,34,16040.0,16050.0,16040.0,16040.0,235,65,16040,49,16045,20
2016-06-22 13:59:00,13:59:00,13:59:59,47445,47912,16040.0,43,16045.0,20,16040.0,16040.0,16015.0,16015.0,609,-417,16020,14,16025,57
2016-06-22 14:00:00,14:00:00,14:00:58,47913,48445,16015.0,77,16020.0,24,16015.0,16025.0,16005.0,16020.0,945,42,16015,93,16020,12
2016-06-22 14:01:00,14:01:00,14:01:57,48451,48639,16015.0,92,16020.0,29,16020.0,16020.0,16010.0,16010.0,211,-140,16005,78,16010,6
2016-06-22 14:02:00,14:02:00,14:02:59,48647,48809,16005.0,64,16010.0,33,16005.0,16015.0,16005.0,16010.0,162,-46,16005,108,16010,41
2016-06-22 14:03:00,14:03:00,14:03:58,48812,48905,16005.0,105,16010.0,45,16010.0,16015.0,16005.0,16010.0,154,-84,16005,37,16010,92
2016-06-22 14:04:00,14:04:00,14:04:58,48909,49131,16005.0,39,16010.0,92,16005.0,16020.0,16005.0,16015.0,367,139,16015,45,16020,67
2016-06-22 14:05:00,14:05:35,14:05:56,49165,49252,16015.0,81,16020.0,73,16015.0,16015.0,16010.0,16010.0,155,-155,16010,83,16015,76
2016-06-22 14:06:00,14:06:10,14:06:46,49266,49473,16010.0,90,16015.0,75,16015.0,16015.0,16005.0,16010.0,397,-143,16005,75,16010,26
2016-06-22 14:07:00,14:07:01,14:07:51,49500,49677,16005.0,56,16010.0,73,16010.0,16010.0,15995.0,15995.0,287,-241,15990,72,15995,50
2016-06-22 14:08:00,14:08:00,14:08:52,49690,50105,15990.0,81,15995.0,62,15995.0,16010.0,15990.0,15995.0,1050,531,15990,140,15995,26
2016-06-22 14:09:00,14:09:00,14:09:59,50109,50291,15990.0,140,15995.0,32,15995.0,16005.0,15990.0,16000.0,276,5,15995,49,16000,15
