,ST,ET,sidx,eidx,bB,bBS,bA,bAS,O,H,L,C,V,OF,eB,eBS,eA,eAS
2016-09-27 08:00:00,08:00:00,08:00:55,2492,3011,16270.0,54,16275.0,37,16270.0,16275.0,16255.0,16260.0,850,-286,16260,46,16265,38
2016-09-27 08:01:00,08:01:02,08:01:59,3025,3221,16260.0,40,16265.0,64,16260.0,16265.0,16260.0,16260.0,227,-121,16260,35,16265,68
2016-09-27 08:02:00,08:02:02,08:02:59,3227,3569,16260.0,37,16265.0,69,16260.0,16265.0,16250.0,16250.0,448,-286,16250,61,16255,87
2016-09-27 08:03:00,08:03:00,08:03:59,3573,3764,16250.0,66,16255.0,87,16250.0,16255.0,16245.0,16250.0,245,3,16250,76,16255,42
2016-09-27 08:04:00,08:04:00,08:04:56,3765,3963,16250.0,77,16255.0,41,16250.0,16255.0,16245.0,16250.0,243,-77,16250,76,16255,63
2016-09-27 08:05:00,08:05:00,08:05:56,3969,4366,16250.0,88,16255.0,63,16250.0,16250.0,16235.0,16235.0,558,-342,16235,45,16240,75
2016-09-27 08:06:00,08:06:00,08:06:59,4378,4835,16235.0,46,16240.0,78,16235.0,16240.0,16230.0,16235.0,562,-174,16235,35,16240,192
2016-09-27 08:07:00,08:07:00,08:07:57,4837,5490,16230.0,67,16240.0,192,16235.0,16235.0,16205.0,16215.0,1092,-371,16210,46,16215,71
2016-09-27 08:08:00,08:08:00,08:08:59,5499,5757,16210.0,71,16215.0,59,16215.0,16220.0,16205.0,16210.0,260,-106,16205,27,16210,67
2016-09-27 08:09:00,08:09:00,08:09:59,5760,6152,16205.0,27,16210.0,67,16205.0,16205.0,16185.0,16195.0,578,-222,16190,58,16195,179
2016-09-27 08:10:00,08:10:02,08:10:48,6159,6329,16190.0,56,16195.0,178,16190.0,16190.0,16185.0,16185.0,223,-33,16185,97,16190,200
2016-09-27 08:11:00,08:11:00,08:11:58,6353,7036,16185.0,122,16190.0,201,16190.0,16195.0,16170.0,16180.0,1291,71,16180,41,16185,87
2016-09-27 08:12:00,08:12:00,08:12:57,7042,7406,16180.0,50,16185.0,90,16180.0,16185.0,16170.0,16175.0,496,-74,16175,56,16180,61
2016-09-27 08:13:00,08:13:05,08:13:59,7414,7896,16175.0,59,16180.0,74,16180.0,16180.0,16150.0,16155.0,815,-449,16150,71,16155,10
2016-09-27 08:14:00,08:14:01,08:14:57,7905,8403,16150.0,73,16155.0,27,16150.0,16165.0,16150.0,16165.0,718,182,16160,93,16165,5
2016-09-27 08:15:00,08:15:02,08:15:59,8414,8802,16160.0,67,16165.0,53,16160.0,16160.0,16150.0,16155.0,506,-4,16150,53,16155,53
2016-09-27 08:16:00,08:16:08,08:16:59,8819,9183,16150.0,67,16155.0,57,16155.0,16165.0,16155.0,16165.0,585,311,16160,74,16165,1
2016-09-27 08:17:00,08:17:00,08:17:58,9187,9490,16160.0,74,16165.0,11,16165.0,16175.0,16165.0,16175.0,415,247,16175,13,16175,8
2016-09-27 08:18:00,08:18:00,08:18:59,9497,10142,16175.0,26,16180.0,80,16180.0,16190.0,16165.0,16175.0,1012,113,16175,41,16180,85
2016-09-27 08:19:00,08:19:01,08:19:48,10151,10661,16175.0,43,16180.0,82,16175.0,16180.0,16165.0,16165.0,1006,-230,16160,60,16165,10
2016-09-27 08:20:00,08:20:04,08:20:59,10700,11076,16160.0,44,16165.0,87,16160.0,16185.0,16155.0,16185.0,558,294,16180,67,16185,32
2016-09-27 08:21:00,08:21:00,08:21:59,11078,11418,16180.0,67,16185.0,37,16185.0,16190.0,16170.0,16190.0,336,44,16185,53,16190,20
2016-09-27 08:22:00,08:22:03,08:22:45,11432,11738,16185.0,53,16190.0,43,16185.0,16185.0,16170.0,16170.0,341,-83,16170,48,16175,49
2016-09-27 08:23:00,08:23:01,08:23:58,11759,12130,16170.0,41,16175.0,55,16170.0,16175.0,16155.0,16165.0,477,-3,16165,51,16170,34
2016-09-27 08:24:00,08:24:03,08:24:49,12136,12523,16165.0,53,16170.0,34,16170.0,16170.0,16155.0,16160.0,477,7,16160,8,16165,46
2016-09-27 08:25:00,08:25:00,08:25:57,12546,12817,16160.0,47,16165.0,36,16160.0,16180.0,16160.0,16175.0,328,142,16170,56,16175,28
2016-09-27 08:26:00,08:26:05,08:26:59,12841,13102,16170.0,43,16175.0,48,16175.0,16185.0,16170.0,16185.0,247,99,16180,55,16185,34
2016-09-27 08:27:00,08:27:04,08:27:50,13111,13244,16180.0,49,16185.0,34,16185.0,16185.0,16185.0,16185.0,125,-23,16180,54,16190,47
2016-09-27 08:28:00,08:28:00,08:28:50,13257,13565,16180.0,51,16185.0,32,16185.0,16190.0,16180.0,16190.0,409,3,16185,45,16190,18
2016-09-27 08:29:00,08:29:01,08:29:58,13582,13693,16185.0,46,16190.0,29,16190.0,16190.0,16185.0,16185.0,63,53,16185,53,16190,40
2016-09-27 08:30:00,08:30:04,08:30:09,13704,13759,16185.0,55,16190.0,52,16185.0,16185.0,16180.0,16185.0,86,-38,16180,53,16185,21
2016-09-27 08:31:00,08:31:04,08:31:59,13823,14038,16180.0,62,16185.0,45,16180.0,16195.0,16180.0,16195.0,247,219,16190,59,16195,19
2016-09-27 08:32:00,08:32:02,08:32:59,14042,14249,16190.0,59,16195.0,21,16195.0,16195.0,16185.0,16185.0,219,-171,16180,53,16185,32
2016-09-27 08:33:00,08:33:01,08:33:57,14255,14492,16180.0,54,16185.0,31,16185.0,16200.0,16185.0,16195.0,272,65,16195,4,16200,58
2016-09-27 08:34:00,08:34:07,08:34:45,14510,14765,16195.0,37,16200.0,59,16200.0,16210.0,16200.0,16210.0,388,224,16205,49,16210,33
2016-09-27 08:35:00,08:35:00,08:35:59,14786,14950,16205.0,51,16210.0,28,16205.0,16210.0,16195.0,16200.0,151,-49,16195,53,16205,48
2016-09-27 08:36:00,08:36:03,08:36:37,14962,15121,16195.0,41,16200.0,22,16200.0,16205.0,16200.0,16205.0,199,-25,16200,63,16205,4
2016-09-27 08:37:00,08:37:00,08:37:54,15145,15499,16200.0,73,16205.0,8,16205.0,16205.0,16190.0,16190.0,492,-108,16185,75,16190,56
2016-09-27 08:38:00,08:38:00,08:38:58,15516,15656,16185.0,73,16190.0,49,16185.0,16195.0,16185.0,16195.0,186,-79,16190,79,16195,37
2016-09-27 08:39:00,08:39:02,08:39:56,15667,15958,16190.0,51,16195.0,69,16190.0,16195.0,16180.0,16190.0,337,-116,16190,29,16195,49
2016-09-27 08:40:00,08:40:16,08:40:51,15986,16177,16190.0,28,16195.0,71,16190.0,16190.0,16185.0,16190.0,288,171,16190,30,16195,63
2016-09-27 08:41:00,08:41:05,08:41:47,16194,16343,16190.0,41,16195.0,70,16190.0,16195.0,16190.0,16195.0,201,29,16195,10,16200,49
2016-09-27 08:42:00,08:42:16,08:42:51,16374,16453,16195.0,32,16200.0,49,16195.0,16195.0,16190.0,16190.0,80,-22,16185,51,16190,2
2016-09-27 08:43:00,08:43:00,08:43:55,16464,16632,16185.0,48,16190.0,19,16190.0,16190.0,16185.0,16190.0,144,80,16185,77,16195,39
2016-09-27 08:44:00,08:44:01,08:44:57,16640,16752,16190.0,3,16195.0,41,16190.0,16190.0,16185.0,16185.0,86,-64,16185,20,16190,36
2016-09-27 08:45:00,08:45:15,08:45:57,16768,16959,16185.0,37,16190.0,28,16185.0,16195.0,16180.0,16180.0,241,-101,16180,10,16185,72
2016-09-27 08:46:00,08:46:00,08:46:53,16966,17136,16180.0,14,16185.0,68,16185.0,16185.0,16180.0,16180.0,169,19,16180,38,16185,31
2016-09-27 08:47:00,08:47:04,08:47:54,17156,17318,16180.0,64,16185.0,53,16185.0,16185.0,16175.0,16175.0,187,-65,16170,48,16175,55
2016-09-27 08:48:00,08:48:06,08:48:58,17337,17559,16170.0,38,16175.0,88,16170.0,16175.0,16165.0,16170.0,279,-117,16170,22,16175,44
2016-09-27 08:49:00,08:49:03,08:49:54,17568,17721,16170.0,39,16175.0,40,16170.0,16180.0,16170.0,16175.0,141,-18,16175,34,16180,47
2016-09-27 08:50:00,08:50:00,08:50:59,17733,17952,16175.0,42,16180.0,48,16180.0,16190.0,16175.0,16180.0,302,-124,16175,38,16180,9
2016-09-27 08:51:00,08:51:08,08:51:46,17969,18047,16175.0,41,16180.0,23,16180.0,16185.0,16180.0,16185.0,65,61,16185,42,16190,43
2016-09-27 08:52:00,08:52:01,08:52:58,18057,18130,16185.0,49,16190.0,29,16190.0,16195.0,16190.0,16195.0,54,40,16190,53,16195,36
2016-09-27 08:53:00,08:53:03,08:53:52,18139,18385,16190.0,57,16195.0,38,16195.0,16200.0,16190.0,16190.0,314,126,16185,40,16190,7
2016-09-27 08:54:00,08:54:00,08:54:58,18393,18569,16185.0,29,16190.0,41,16190.0,16190.0,16175.0,16175.0,153,-105,16175,45,16180,40
2016-09-27 08:55:00,08:55:00,08:55:40,18575,18715,16175.0,32,16180.0,50,16175.0,16175.0,16175.0,16175.0,118,-44,16170,56,16180,42
2016-09-27 08:56:00,08:56:08,08:56:46,18743,18866,16175.0,38,16180.0,56,16175.0,16175.0,16170.0,16170.0,135,-97,16165,42,16170,3
2016-09-27 08:57:00,08:57:02,08:57:54,18894,19143,16165.0,45,16170.0,69,16165.0,16170.0,16165.0,16165.0,383,151,16160,48,16165,11
2016-09-27 08:58:00,08:58:00,08:58:52,19154,19248,16160.0,47,16165.0,23,16160.0,16170.0,16160.0,16170.0,95,89,16170,40,16175,70
2016-09-27 08:59:00,08:59:03,08:59:59,19253,19333,16170.0,40,16175.0,70,16175.0,16180.0,16170.0,16180.0,60,44,16175,76,16180,25
2016-09-27 09:00:00,09:00:02,09:00:49,19343,19552,16175.0,82,16180.0,21,16180.0,16185.0,16175.0,16180.0,240,-36,16175,62,16180,12
2016-09-27 09:01:00,09:01:08,09:01:58,19573,19724,16175.0,43,16180.0,46,16175.0,16175.0,16170.0,16170.0,122,-11,16170,22,16170,21
2016-09-27 09:02:00,09:02:07,09:02:54,19732,19867,16170.0,20,16175.0,60,16170.0,16170.0,16165.0,16165.0,131,-45,16165,16,16170,42
2016-09-27 09:03:00,09:03:01,09:03:52,19876,19937,16165.0,26,16170.0,45,16165.0,16170.0,16165.0,16165.0,11,-9,16165,27,16170,43
2016-09-27 09:04:00,09:04:05,09:04:56,19955,20062,16165.0,21,16170.0,43,16170.0,16175.0,16165.0,16170.0,69,53,16170,47,16175,42
2016-09-27 09:05:00,09:05:06,09:05:55,20077,20209,16170.0,50,16175.0,44,16170.0,16180.0,16170.0,16180.0,130,-16,16180,42,16185,30
2016-09-27 09:06:00,09:06:02,09:06:52,20216,20357,16180.0,45,16185.0,24,16180.0,16185.0,16180.0,16180.0,132,-128,16180,29,16185,30
2016-09-27 09:07:00,09:07:02,09:07:57,20369,20548,16180.0,34,16185.0,26,16180.0,16190.0,16180.0,16180.0,109,-49,16180,32,16185,33
2016-09-27 09:08:00,09:08:02,09:08:58,20554,20753,16180.0,32,16185.0,30,16180.0,16185.0,16180.0,16185.0,139,5,16180,42,16185,31
2016-09-27 09:09:00,09:09:02,09:09:55,20763,20975,16180.0,35,16185.0,42,16180.0,16185.0,16175.0,16180.0,385,-53,16180,4,16185,52
2016-09-27 09:10:00,09:10:02,09:10:54,20984,21082,16180.0,19,16185.0,53,16180.0,16180.0,16175.0,16180.0,70,-23,16175,51,16185,49
2016-09-27 09:11:00,09:11:02,09:11:57,21092,21183,16180.0,6,16185.0,54,16180.0,16185.0,16175.0,16185.0,60,-22,16180,47,16185,14
2016-09-27 09:12:00,09:12:00,09:12:59,21189,21378,16180.0,54,16185.0,18,16185.0,16195.0,16180.0,16195.0,254,197,16190,69,16200,51
2016-09-27 09:13:00,09:13:00,09:13:59,21383,21641,16190.0,79,16195.0,4,16195.0,16210.0,16190.0,16205.0,302,264,16205,12,16210,54
2016-09-27 09:14:00,09:14:00,09:14:59,21642,21993,16205.0,51,16210.0,34,16205.0,16205.0,16195.0,16205.0,384,32,16200,38,16205,30
2016-09-27 09:15:00,09:15:03,09:15:53,22001,22244,16200.0,33,16205.0,48,16200.0,16205.0,16195.0,16195.0,297,57,16195,42,16200,46
2016-09-27 09:16:00,09:16:00,09:16:54,22253,22602,16195.0,44,16200.0,40,16200.0,16210.0,16195.0,16210.0,475,191,16210,33,16215,45
2016-09-27 09:17:00,09:17:02,09:17:57,22624,23151,16210.0,41,16215.0,40,16215.0,16240.0,16210.0,16235.0,732,55,16235,14,16240,50
2016-09-27 09:18:00,09:18:00,09:18:59,23162,23465,16235.0,6,16240.0,51,16240.0,16240.0,16220.0,16240.0,296,-45,16235,43,16240,42
2016-09-27 09:19:00,09:19:00,09:19:54,23468,23915,16235.0,43,16240.0,42,16240.0,16255.0,16240.0,16245.0,617,251,16245,51,16250,51
2016-09-27 09:20:00,09:20:00,09:20:59,23927,24174,16245.0,50,16250.0,47,16250.0,16250.0,16240.0,16245.0,236,-92,16240,37,16245,48
2016-09-27 09:21:00,09:21:00,09:21:58,24179,24380,16240.0,36,16245.0,49,16245.0,16245.0,16235.0,16235.0,175,-91,16235,29,16240,69
2016-09-27 09:22:00,09:22:02,09:22:54,24390,24737,16235.0,35,16240.0,64,16240.0,16255.0,16230.0,16240.0,548,188,16240,50,16245,10
2016-09-27 09:23:00,09:23:00,09:23:55,24746,24953,16240.0,49,16245.0,22,16245.0,16245.0,16235.0,16235.0,150,-21,16235,25,16240,43
2016-09-27 09:24:00,09:24:05,09:24:59,24970,25197,16235.0,46,16240.0,35,16235.0,16240.0,16225.0,16230.0,205,-29,16225,52,16230,38
2016-09-27 09:25:00,09:25:02,09:25:55,25207,25507,16225.0,52,16230.0,23,16230.0,16235.0,16225.0,16225.0,445,-106,16225,23,16230,71
2016-09-27 09:26:00,09:26:02,09:26:33,25514,25631,16225.0,33,16230.0,71,16230.0,16230.0,16230.0,16230.0,151,88,16225,37,16230,36
2016-09-27 09:27:00,09:27:08,09:27:49,25670,25785,16225.0,63,16230.0,31,16230.0,16235.0,16230.0,16235.0,109,39,16235,7,16240,48
2016-09-27 09:28:00,09:28:00,09:28:55,25797,25908,16235.0,36,16240.0,47,16240.0,16240.0,16235.0,16240.0,75,57,16235,45,16240,43
2016-09-27 09:29:00,09:29:18,09:29:59,25936,26323,16235.0,46,16240.0,51,16235.0,16280.0,16235.0,16270.0,696,514,16265,53,16270,37
2016-09-27 09:30:00,09:30:00,09:30:55,26328,26880,16265.0,55,16270.0,17,16270.0,16285.0,16270.0,16275.0,900,12,16270,62,16275,4
2016-09-27 09:31:00,09:31:00,09:31:55,26894,27241,16270.0,32,16275.0,125,16275.0,16275.0,16255.0,16265.0,400,-146,16265,26,16270,42
2016-09-27 09:32:00,09:32:00,09:32:54,27255,27544,16265.0,53,16270.0,38,16270.0,16270.0,16260.0,16260.0,310,-12,16260,12,16265,48
2016-09-27 09:33:00,09:33:01,09:33:59,27554,27754,16260.0,39,16265.0,38,16265.0,16275.0,16265.0,16270.0,190,-44,16270,3,16275,90
2016-09-27 09:34:00,09:34:02,09:34:58,27762,27901,16270.0,29,16275.0,92,16270.0,16275.0,16270.0,16270.0,92,36,16265,27,16270,27
2016-09-27 09:35:00,09:35:02,09:35:59,27910,28129,16265.0,31,16270.0,32,16265.0,16270.0,16260.0,16270.0,175,35,16270,23,16275,70
2016-09-27 09:36:00,09:36:03,09:36:59,28138,28321,16270.0,39,16275.0,52,16275.0,16280.0,16275.0,16275.0,224,42,16270,47,16275,10
2016-09-27 09:37:00,09:37:00,09:37:56,28324,28553,16270.0,47,16275.0,10,16275.0,16295.0,16275.0,16295.0,340,332,16295,3,16300,52
2016-09-27 09:38:00,09:38:02,09:38:58,28567,28870,16295.0,64,16300.0,39,16300.0,16305.0,16295.0,16295.0,319,-31,16290,39,16295,53
2016-09-27 09:39:00,09:39:00,09:39:56,28878,29097,16290.0,43,16295.0,49,16295.0,16295.0,16285.0,16290.0,234,-38,16290,19,16295,46
2016-09-27 09:40:00,09:40:09,09:40:57,29122,29291,16290.0,38,16295.0,60,16295.0,16300.0,16285.0,16300.0,172,-2,16295,31,16300,37
2016-09-27 09:41:00,09:41:00,09:41:54,29293,29463,16295.0,29,16300.0,37,16295.0,16305.0,16295.0,16305.0,148,72,16300,24,16305,28
2016-09-27 09:42:00,09:42:00,09:42:59,29467,30006,16300.0,26,16305.0,28,16305.0,16335.0,16295.0,16330.0,789,450,16325,76,16330,25
2016-09-27 09:43:00,09:43:00,09:43:56,30009,30454,16325.0,76,16330.0,25,16330.0,16345.0,16325.0,16340.0,497,89,16335,98,16340,25
2016-09-27 09:44:00,09:44:00,09:44:59,30462,30746,16335.0,113,16340.0,30,16340.0,16345.0,16330.0,16345.0,367,-87,16340,25,16345,64
2016-09-27 09:45:00,09:45:02,09:45:59,30753,31022,16340.0,33,16345.0,64,16340.0,16355.0,16335.0,16340.0,309,129,16335,85,16340,43
2016-09-27 09:46:00,09:46:00,09:46:58,31024,31270,16335.0,82,16340.0,43,16340.0,16345.0,16335.0,16345.0,262,92,16340,60,16345,17
2016-09-27 09:47:00,09:47:01,09:47:59,31277,31451,16340.0,60,16345.0,15,16345.0,16350.0,16335.0,16335.0,113,-21,16335,75,16340,61
2016-09-27 09:48:00,09:48:00,09:48:57,31454,31962,16335.0,75,16340.0,61,16340.0,16365.0,16335.0,16355.0,680,265,16355,26,16355,19
2016-09-27 09:49:00,09:49:00,09:49:59,31966,32255,16350.0,54,16355.0,17,16355.0,16360.0,16345.0,16350.0,314,-44,16345,69,16355,66
2016-09-27 09:50:00,09:50:00,09:50:56,32259,32532,16345.0,69,16350.0,4,16350.0,16355.0,16345.0,16355.0,322,-114,16350,43,16360,82
2016-09-27 09:51:00,09:51:00,09:51:41,32545,32745,16355.0,24,16360.0,70,16360.0,16360.0,16355.0,16355.0,231,7,16350,45,16355,23
2016-09-27 09:52:00,09:52:01,09:52:56,32770,33006,16350.0,39,16355.0,38,16350.0,16360.0,16345.0,16355.0,259,43,16355,24,16360,36
2016-09-27 09:53:00,09:53:03,09:53:50,33024,33209,16355.0,49,16360.0,34,16360.0,16365.0,16355.0,16360.0,203,-37,16360,22,16365,37
2016-09-27 09:54:00,09:54:03,09:54:51,33232,33406,16360.0,43,16365.0,39,16360.0,16365.0,16360.0,16360.0,159,85,16355,42,16360,29
2016-09-27 09:55:00,09:55:02,09:55:59,33413,33550,16355.0,43,16360.0,12,16360.0,16360.0,16350.0,16350.0,108,-8,16350,31,16350,35
2016-09-27 09:56:00,09:56:02,09:56:46,33552,33815,16350.0,31,16355.0,39,16350.0,16350.0,16340.0,16350.0,310,58,16345,40,16350,16
2016-09-27 09:57:00,09:57:02,09:57:49,33829,34038,16345.0,37,16350.0,29,16350.0,16355.0,16330.0,16335.0,223,-155,16335,21,16340,61
2016-09-27 09:58:00,09:58:02,09:58:45,34058,34260,16335.0,33,16340.0,50,16340.0,16350.0,16340.0,16340.0,212,20,16335,35,16340,28
2016-09-27 09:59:00,09:59:03,09:59:55,34287,34392,16335.0,27,16340.0,42,16340.0,16345.0,16340.0,16340.0,32,28,16340,50,16345,40
2016-09-27 10:00:00,10:00:12,10:00:58,34413,34523,16340.0,43,16345.0,50,16345.0,16350.0,16345.0,16345.0,72,44,16340,49,16345,10
2016-09-27 10:01:00,10:01:08,10:01:51,34540,34722,16340.0,53,16345.0,17,16340.0,16345.0,16335.0,16335.0,141,-26,16335,29,16340,23
2016-09-27 10:02:00,10:02:00,10:02:58,34742,35082,16335.0,22,16340.0,32,16335.0,16350.0,16335.0,16345.0,446,112,16345,28,16350,40
2016-09-27 10:03:00,10:03:01,10:03:55,35092,35279,16345.0,14,16350.0,39,16345.0,16345.0,16340.0,16340.0,107,7,16340,12,16345,38
2016-09-27 10:04:00,10:04:01,10:04:53,35293,35450,16340.0,39,16345.0,14,16345.0,16350.0,16345.0,16350.0,86,32,16345,35,16350,7
2016-09-27 10:05:00,10:05:03,10:05:59,35463,35712,16345.0,20,16350.0,16,16350.0,16370.0,16345.0,16360.0,233,21,16360,23,16365,33
2016-09-27 10:06:00,10:06:00,10:06:52,35714,35997,16360.0,23,16365.0,39,16365.0,16370.0,16360.0,16365.0,301,133,16360,40,16365,2
2016-09-27 10:07:00,10:07:01,10:07:51,36011,36169,16360.0,40,16365.0,26,16365.0,16375.0,16365.0,16375.0,156,154,16370,151,16375,9
2016-09-27 10:08:00,10:08:06,10:08:53,36198,36410,16370.0,161,16375.0,30,16375.0,16375.0,16360.0,16370.0,279,-123,16365,13,16370,37
2016-09-27 10:09:00,10:09:00,10:09:46,36422,36562,16365.0,34,16370.0,15,16370.0,16370.0,16355.0,16355.0,103,-29,16355,27,16360,54
2016-09-27 10:10:00,10:10:00,10:10:58,36573,36689,16355.0,34,16360.0,34,16360.0,16360.0,16355.0,16355.0,160,-144,16350,44,16355,3
2016-09-27 10:11:00,10:11:12,10:11:59,36713,36899,16350.0,44,16355.0,35,16350.0,16350.0,16345.0,16350.0,204,-60,16350,2,16355,48
2016-09-27 10:12:00,10:12:02,10:12:58,36910,37139,16345.0,62,16350.0,19,16350.0,16350.0,16345.0,16345.0,361,-65,16340,139,16345,4
2016-09-27 10:13:00,10:13:03,10:13:50,37152,37317,16340.0,151,16345.0,22,16345.0,16345.0,16340.0,16345.0,165,145,16340,137,16345,6
2016-09-27 10:14:00,10:14:02,10:14:57,37331,37550,16340.0,135,16345.0,23,16340.0,16350.0,16340.0,16340.0,338,-74,16335,28,16340,30
2016-09-27 10:15:00,10:15:02,10:15:56,37563,37721,16335.0,41,16340.0,25,16340.0,16345.0,16335.0,16340.0,191,41,16340,48,16345,67
2016-09-27 10:16:00,10:16:03,10:16:56,37727,37888,16340.0,47,16345.0,67,16340.0,16350.0,16340.0,16350.0,195,-105,16350,33,16355,42
2016-09-27 10:17:00,10:17:06,10:17:38,37908,38022,16350.0,38,16355.0,39,16355.0,16360.0,16355.0,16360.0,150,12,16355,46,16360,31
2016-09-27 10:18:00,10:18:04,10:18:58,38063,38172,16355.0,33,16360.0,54,16355.0,16355.0,16355.0,16355.0,102,-102,16355,6,16360,46
2016-09-27 10:19:00,10:19:12,10:19:58,38197,38288,16355.0,42,16360.0,30,16360.0,16365.0,16360.0,16360.0,77,7,16355,46,16360,21
2016-09-27 10:20:00,10:20:00,10:20:57,38295,38469,16355.0,44,16360.0,29,16360.0,16365.0,16355.0,16355.0,183,-3,16355,19,16360,39
2016-09-27 10:21:00,10:21:05,10:21:58,38480,38616,16355.0,32,16360.0,35,16360.0,16360.0,16360.0,16360.0,109,-17,16360,21,16365,43
2016-09-27 10:22:00,10:22:01,10:22:50,38622,38747,16360.0,8,16365.0,43,16360.0,16360.0,16350.0,16360.0,101,-8,16360,3,16365,42
2016-09-27 10:23:00,10:23:11,10:23:46,38766,38809,16360.0,32,16365.0,40,16360.0,16360.0,16360.0,16360.0,31,-31,16360,25,16365,37
2016-09-27 10:24:00,10:24:04,10:24:54,38826,38921,16360.0,30,16365.0,33,16360.0,16365.0,16360.0,16360.0,73,-27,16360,28,16365,48
2016-09-27 10:25:00,10:25:12,10:25:57,38938,39072,16360.0,38,16365.0,44,16365.0,16365.0,16360.0,16360.0,113,-67,16355,40,16360,36
2016-09-27 10:26:00,10:26:03,10:26:52,39084,39210,16355.0,45,16360.0,29,16355.0,16355.0,16355.0,16355.0,105,-105,16355,10,16360,50
2016-09-27 10:27:00,10:27:02,10:27:59,39219,39448,16355.0,14,16360.0,55,16355.0,16355.0,16350.0,16350.0,196,-75,16350,20,16355,44
2016-09-27 10:28:00,10:28:02,10:28:54,39461,39606,16350.0,47,16355.0,26,16350.0,16355.0,16350.0,16355.0,72,6,16355,86,16360,41
2016-09-27 10:29:00,10:29:02,10:29:53,39619,39830,16355.0,78,16360.0,42,16360.0,16360.0,16355.0,16360.0,186,26,16355,47,16360,17
2016-09-27 10:30:00,10:30:04,10:30:59,39852,40174,16355.0,36,16360.0,43,16355.0,16380.0,16355.0,16380.0,355,39,16375,40,16380,25
2016-09-27 10:31:00,10:31:00,10:31:54,40179,40565,16375.0,43,16380.0,21,16380.0,16385.0,16375.0,16380.0,428,85,16375,113,16380,52
2016-09-27 10:32:00,10:32:04,10:32:59,40589,40826,16375.0,118,16380.0,46,16380.0,16380.0,16375.0,16375.0,254,-87,16370,47,16375,9
2016-09-27 10:33:00,10:33:00,10:33:58,40829,40935,16370.0,47,16375.0,9,16375.0,16380.0,16375.0,16380.0,35,25,16375,181,16385,49
2016-09-27 10:34:00,10:34:00,10:34:55,40940,41157,16380.0,27,16385.0,32,16385.0,16395.0,16380.0,16380.0,269,-73,16375,117,16380,14
2016-09-27 10:35:00,10:35:00,10:35:49,41167,41310,16375.0,120,16380.0,27,16380.0,16380.0,16375.0,16375.0,229,-185,16370,37,16375,20
2016-09-27 10:36:00,10:36:00,10:36:57,41327,41667,16370.0,24,16375.0,38,16375.0,16380.0,16370.0,16380.0,365,94,16380,5,16385,42
2016-09-27 10:37:00,10:37:03,10:37:45,41682,41926,16375.0,30,16380.0,45,16380.0,16390.0,16380.0,16390.0,285,211,16385,37,16390,17
2016-09-27 10:38:00,10:38:07,10:38:54,41955,42313,16385.0,48,16390.0,21,16390.0,16410.0,16390.0,16395.0,424,160,16390,52,16395,20
2016-09-27 10:39:00,10:39:01,10:39:47,42328,42565,16390.0,50,16395.0,21,16395.0,16400.0,16390.0,16390.0,237,29,16385,42,16390,8
2016-09-27 10:40:00,10:40:07,10:40:59,42596,42764,16385.0,27,16390.0,35,16385.0,16390.0,16385.0,16390.0,123,3,16385,97,16395,39
2016-09-27 10:41:00,10:41:03,10:41:52,42771,42901,16390.0,20,16395.0,38,16390.0,16390.0,16385.0,16385.0,88,-55,16385,6,16390,42
2016-09-27 10:42:00,10:42:08,10:42:56,42919,43113,16385.0,25,16390.0,18,16390.0,16395.0,16390.0,16395.0,142,61,16390,30,16395,40
2016-09-27 10:43:00,10:43:07,10:43:49,43126,43226,16390.0,16,16395.0,44,16390.0,16390.0,16385.0,16385.0,108,-92,16380,91,16390,45
2016-09-27 10:44:00,10:44:28,10:44:39,43254,43283,16385.0,16,16390.0,45,16385.0,16385.0,16385.0,16385.0,28,-18,16380,143,16390,48
2016-09-27 10:45:00,10:45:00,10:45:00,0,0,0.0,0,0.0,0,16385.0,16385.0,16385.0,16385.0,0,0,0,0,0,0
2016-09-27 10:46:00,10:46:02,10:46:48,43330,43519,16380.0,133,16385.0,34,16385.0,16390.0,16385.0,16390.0,176,68,16390,31,16395,50
2016-09-27 10:47:00,10:47:06,10:47:54,43534,43682,16390.0,27,16395.0,49,16390.0,16395.0,16390.0,16395.0,151,-49,16390,29,16395,31
2016-09-27 10:48:00,10:48:14,10:48:47,43700,43815,16390.0,32,16395.0,28,16395.0,16395.0,16390.0,16390.0,110,-22,16390,4,16395,39
2016-09-27 10:49:00,10:49:16,10:49:52,43848,44003,16390.0,28,16395.0,39,16395.0,16395.0,16385.0,16390.0,156,-90,16385,14,16390,33
2016-09-27 10:50:00,10:50:32,10:50:32,44038,44038,16385.0,76,16390.0,30,16385.0,16385.0,16385.0,16385.0,1,-1,16385,70,16390,36
2016-09-27 10:51:00,10:51:01,10:51:58,44053,44192,16385.0,65,16390.0,41,16390.0,16390.0,16385.0,16385.0,143,-113,16380,79,16390,40
2016-09-27 10:52:00,10:52:00,10:52:34,44194,44282,16385.0,5,16390.0,40,16385.0,16385.0,16380.0,16380.0,150,-62,16375,87,16385,45
2016-09-27 10:53:00,10:53:34,10:53:58,44336,44425,16375.0,28,16380.0,52,16375.0,16375.0,16370.0,16370.0,118,-112,16370,126,16375,65
2016-09-27 10:54:00,10:54:07,10:54:58,44435,44641,16370.0,131,16375.0,51,16370.0,16390.0,16370.0,16385.0,331,-73,16385,26,16390,29
2016-09-27 10:55:00,10:55:07,10:55:58,44649,44758,16385.0,37,16390.0,17,16390.0,16390.0,16385.0,16390.0,78,-2,16385,24,16390,25
2016-09-27 10:56:00,10:56:22,10:56:56,44782,44978,16385.0,10,16390.0,30,16385.0,16385.0,16380.0,16380.0,256,-142,16380,13,16385,30
2016-09-27 10:57:00,10:57:10,10:57:48,44988,45177,16380.0,13,16385.0,40,16380.0,16380.0,16370.0,16370.0,213,-151,16365,33,16370,9
2016-09-27 10:58:00,10:58:00,10:58:48,45195,45307,16365.0,19,16370.0,30,16370.0,16370.0,16365.0,16365.0,130,-98,16360,38,16365,11
2016-09-27 10:59:00,10:59:08,10:59:58,45333,45464,16360.0,41,16365.0,36,16360.0,16365.0,16360.0,16360.0,130,54,16355,37,16360,2
2016-09-27 11:00:00,11:00:02,11:00:22,45476,45512,16355.0,41,16360.0,6,16360.0,16360.0,16360.0,16360.0,36,32,16360,30,16365,39
2016-09-27 11:01:00,11:01:08,11:01:25,45529,45622,16360.0,30,16365.0,51,16365.0,16365.0,16365.0,16365.0,130,56,16360,38,16365,5
2016-09-27 11:02:00,11:02:00,11:02:59,45651,45719,16365.0,13,16370.0,81,16365.0,16370.0,16365.0,16370.0,106,10,16370,9,16375,42
2016-09-27 11:03:00,11:03:00,11:03:56,45720,45840,16370.0,23,16375.0,31,16370.0,16370.0,16370.0,16370.0,82,2,16365,40,16370,20
2016-09-27 11:04:00,11:04:40,11:04:40,45875,45885,16365.0,88,16370.0,8,16370.0,16370.0,16370.0,16370.0,11,11,16370,15,16375,41
2016-09-27 11:05:00,11:05:01,11:05:58,45897,45962,16370.0,33,16375.0,31,16375.0,16375.0,16370.0,16370.0,21,-17,16370,20,16375,39
2016-09-27 11:06:00,11:06:36,11:06:56,45992,46030,16370.0,30,16375.0,29,16375.0,16375.0,16370.0,16375.0,37,-29,16370,77,16375,23
2016-09-27 11:07:00,11:07:07,11:07:59,46041,46175,16370.0,77,16375.0,15,16375.0,16380.0,16375.0,16375.0,91,11,16375,65,16380,14
2016-09-27 11:08:00,11:08:01,11:08:52,46180,46282,16375.0,65,16380.0,14,16380.0,16385.0,16380.0,16380.0,93,77,16380,20,16385,36
2016-09-27 11:09:00,11:09:05,11:09:59,46295,46431,16380.0,26,16385.0,14,16380.0,16385.0,16380.0,16385.0,97,-11,16380,18,16385,31
2016-09-27 11:10:00,11:10:05,11:10:58,46439,46477,16380.0,15,16385.0,34,16380.0,16380.0,16380.0,16380.0,17,-9,16375,74,16380,1
2016-09-27 11:11:00,11:11:00,11:11:39,46479,46527,16375.0,74,16380.0,3,16380.0,16385.0,16380.0,16380.0,24,4,16380,39,16385,32
2016-09-27 11:12:00,11:12:59,11:12:59,46551,46551,16380.0,35,16385.0,31,16380.0,16380.0,16380.0,16380.0,2,-2,16380,33,16385,30
2016-09-27 11:13:00,11:13:12,11:13:55,46557,46655,16380.0,32,16385.0,31,16385.0,16385.0,16385.0,16385.0,91,21,16380,38,16385,15
2016-09-27 11:14:00,11:14:11,11:14:15,46669,46679,16380.0,41,16385.0,13,16385.0,16385.0,16385.0,16385.0,7,5,16385,24,16390,29
2016-09-27 11:15:00,11:15:08,11:15:56,46706,46799,16385.0,31,16390.0,25,16385.0,16390.0,16385.0,16390.0,83,-59,16390,33,16395,22
2016-09-27 11:16:00,11:16:08,11:16:25,46816,46902,16390.0,23,16395.0,31,16390.0,16390.0,16390.0,16390.0,89,-36,16390,4,16395,34
2016-09-27 11:17:00,11:17:29,11:17:37,46932,46966,16390.0,7,16395.0,36,16390.0,16390.0,16390.0,16390.0,38,-12,16390,43,16395,33
2016-09-27 11:18:00,11:18:27,11:18:36,46980,46982,16390.0,50,16395.0,30,16390.0,16390.0,16390.0,16390.0,2,-2,16390,47,16395,31
2016-09-27 11:19:00,11:19:02,11:19:59,46993,47110,16390.0,47,16395.0,32,16395.0,16395.0,16385.0,16390.0,78,-28,16385,8,16390,41
2016-09-27 11:20:00,11:20:06,11:20:44,47114,47146,16385.0,8,16390.0,42,16385.0,16385.0,16380.0,16385.0,16,-12,16380,80,16385,9
2016-09-27 11:21:00,11:21:06,11:21:55,47165,47240,16380.0,76,16385.0,31,16380.0,16385.0,16380.0,16385.0,82,-76,16380,96,16385,32
2016-09-27 11:22:00,11:22:33,11:22:59,47271,47334,16380.0,93,16385.0,41,16380.0,16385.0,16380.0,16380.0,34,-32,16380,15,16385,37
2016-09-27 11:23:00,11:23:09,11:23:44,47350,47379,16380.0,26,16385.0,25,16380.0,16380.0,16380.0,16380.0,24,-24,16380,10,16385,41
2016-09-27 11:24:00,11:24:04,11:24:46,47389,47586,16380.0,29,16385.0,43,16385.0,16395.0,16380.0,16390.0,286,48,16390,70,16395,35
2016-09-27 11:25:00,11:25:03,11:25:53,47590,47640,16390.0,70,16395.0,34,16395.0,16395.0,16395.0,16395.0,39,25,16395,4,16400,42
2016-09-27 11:26:00,11:26:07,11:26:55,47657,47992,16395.0,74,16400.0,35,16400.0,16420.0,16400.0,16410.0,575,257,16405,31,16410,18
2016-09-27 11:27:00,11:27:00,11:27:58,48003,48141,16405.0,28,16410.0,32,16405.0,16420.0,16405.0,16420.0,94,66,16415,26,16420,34
2016-09-27 11:28:00,11:28:05,11:28:45,48149,48350,16415.0,34,16420.0,38,16415.0,16420.0,16410.0,16415.0,237,8,16410,26,16415,47
2016-09-27 11:29:00,11:29:00,11:29:31,48371,48433,16410.0,31,16415.0,44,16410.0,16410.0,16405.0,16405.0,53,-7,16400,37,16405,23
2016-09-27 11:30:00,11:30:00,11:30:59,48468,48780,16400.0,35,16405.0,26,16400.0,16405.0,16390.0,16405.0,292,50,16405,4,16410,30
2016-09-27 11:31:00,11:31:03,11:31:59,48793,48971,16405.0,42,16410.0,17,16410.0,16420.0,16410.0,16415.0,179,-7,16410,50,16415,13
2016-09-27 11:32:00,11:32:06,11:32:55,48979,49179,16410.0,53,16415.0,16,16410.0,16415.0,16410.0,16410.0,192,-116,16410,20,16415,31
2016-09-27 11:33:00,11:33:03,11:33:59,49191,49365,16410.0,4,16415.0,36,16410.0,16410.0,16410.0,16410.0,116,-83,16405,39,16410,13
2016-09-27 11:34:00,11:34:05,11:34:59,49379,49501,16405.0,41,16410.0,13,16410.0,16420.0,16410.0,16420.0,154,48,16420,7,16425,48
2016-09-27 11:35:00,11:35:03,11:35:54,49515,49691,16420.0,45,16425.0,31,16425.0,16425.0,16415.0,16420.0,193,-83,16415,34,16420,41
2016-09-27 11:36:00,11:36:03,11:36:57,49707,50135,16415.0,46,16420.0,31,16420.0,16445.0,16415.0,16445.0,773,648,16440,49,16445,17
2016-09-27 11:37:00,11:37:03,11:37:58,50146,50610,16440.0,55,16445.0,25,16445.0,16470.0,16445.0,16465.0,980,574,16460,68,16465,59
2016-09-27 11:38:00,11:38:00,11:38:59,50619,50969,16460.0,73,16465.0,59,16460.0,16470.0,16460.0,16465.0,600,228,16460,66,16465,30
2016-09-27 11:39:00,11:39:02,11:39:59,50979,51300,16460.0,68,16465.0,49,16460.0,16475.0,16460.0,16475.0,624,372,16470,41,16475,117
2016-09-27 11:40:00,11:40:00,11:40:57,51301,51676,16470.0,43,16475.0,118,16475.0,16475.0,16440.0,16455.0,685,-385,16455,2,16460,59
2016-09-27 11:41:00,11:41:00,11:41:59,51685,51838,16455.0,17,16460.0,60,16460.0,16460.0,16455.0,16460.0,59,-29,16460,47,16465,50
2016-09-27 11:42:00,11:42:10,11:42:57,51862,51923,16460.0,47,16465.0,53,16460.0,16465.0,16460.0,16465.0,24,-18,16460,44,16465,46
2016-09-27 11:43:00,11:43:07,11:43:59,51934,52087,16460.0,69,16465.0,45,16465.0,16465.0,16455.0,16455.0,109,-63,16450,49,16455,9
2016-09-27 11:44:00,11:44:07,11:44:52,52097,52248,16450.0,50,16455.0,31,16455.0,16455.0,16445.0,16445.0,169,-145,16445,47,16450,30
2016-09-27 11:45:00,11:45:00,11:45:49,52264,52388,16445.0,48,16450.0,27,16450.0,16455.0,16450.0,16455.0,82,37,16450,29,16455,21
2016-09-27 11:46:00,11:46:19,11:46:51,52416,52569,16450.0,38,16455.0,22,16455.0,16470.0,16455.0,16465.0,185,153,16465,43,16470,33
2016-09-27 11:47:00,11:47:03,11:47:57,52584,52802,16465.0,39,16470.0,35,16465.0,16470.0,16460.0,16465.0,233,14,16465,38,16470,38
2016-09-27 11:48:00,11:48:23,11:48:48,52824,52914,16465.0,44,16470.0,36,16470.0,16475.0,16470.0,16470.0,94,50,16465,40,16470,23
2016-09-27 11:49:00,11:49:05,11:49:50,52931,53024,16465.0,31,16470.0,56,16470.0,16470.0,16465.0,16465.0,48,-32,16460,69,16465,30
2016-09-27 11:50:00,11:50:01,11:50:49,53041,53280,16460.0,71,16465.0,33,16460.0,16465.0,16455.0,16455.0,322,-204,16450,46,16460,50
2016-09-27 11:51:00,11:51:01,11:51:58,53306,53431,16450.0,40,16455.0,38,16455.0,16465.0,16455.0,16460.0,105,27,16460,11,16465,34
2016-09-27 11:52:00,11:52:10,11:52:59,53453,53609,16460.0,60,16465.0,24,16460.0,16470.0,16460.0,16470.0,155,-61,16465,41,16470,19
2016-09-27 11:53:00,11:53:00,11:53:50,53610,53739,16465.0,44,16470.0,7,16470.0,16475.0,16465.0,16465.0,95,-17,16465,57,16470,30
2016-09-27 11:54:00,11:54:20,11:54:57,53749,53886,16465.0,61,16470.0,36,16465.0,16470.0,16465.0,16465.0,146,-106,16465,83,16470,45
2016-09-27 11:55:00,11:55:12,11:55:35,53899,53979,16465.0,86,16470.0,54,16465.0,16470.0,16465.0,16465.0,115,-87,16460,44,16465,13
2016-09-27 11:56:00,11:56:31,11:56:59,54011,54054,16460.0,43,16465.0,33,16465.0,16465.0,16460.0,16460.0,5,3,16460,51,16465,25
2016-09-27 11:57:00,11:57:02,11:57:49,54060,54167,16460.0,51,16465.0,15,16465.0,16470.0,16465.0,16470.0,51,51,16465,71,16470,25
2016-09-27 11:58:00,11:58:26,11:58:58,54211,54298,16465.0,57,16470.0,25,16465.0,16465.0,16460.0,16465.0,81,-73,16460,29,16465,42
2016-09-27 11:59:00,11:59:12,11:59:58,54311,54428,16460.0,46,16465.0,36,16460.0,16460.0,16450.0,16450.0,82,-76,16450,14,16455,58
2016-09-27 12:00:00,12:00:20,12:00:57,54456,54613,16450.0,31,16455.0,60,16450.0,16455.0,16445.0,16455.0,170,-75,16450,30,16455,34
2016-09-27 12:01:00,12:01:03,12:01:58,54618,54712,16450.0,30,16455.0,36,16455.0,16465.0,16455.0,16460.0,62,48,16455,28,16460,55
2016-09-27 12:02:00,12:02:08,12:02:53,54717,54790,16455.0,36,16460.0,55,16460.0,16460.0,16455.0,16460.0,67,45,16460,35,16465,34
2016-09-27 12:03:00,12:03:04,12:03:43,54810,54913,16460.0,44,16465.0,21,16460.0,16465.0,16460.0,16460.0,81,-59,16455,36,16460,7
2016-09-27 12:04:00,12:04:00,12:04:51,54933,55013,16455.0,27,16460.0,31,16460.0,16460.0,16450.0,16455.0,47,-11,16450,31,16455,21
2016-09-27 12:05:00,12:05:06,12:05:51,55022,55082,16450.0,31,16455.0,17,16455.0,16460.0,16455.0,16455.0,32,4,16455,26,16460,35
2016-09-27 12:06:00,12:06:01,12:06:44,55085,55151,16455.0,28,16460.0,37,16460.0,16460.0,16455.0,16455.0,43,17,16455,14,16460,32
2016-09-27 12:07:00,12:07:16,12:07:56,55185,55273,16455.0,39,16460.0,26,16460.0,16460.0,16455.0,16455.0,66,-38,16455,4,16460,51
2016-09-27 12:08:00,12:08:05,12:08:58,55283,55372,16455.0,15,16460.0,49,16455.0,16455.0,16450.0,16450.0,32,-14,16450,41,16455,34
2016-09-27 12:09:00,12:09:04,12:09:58,55382,55435,16450.0,44,16455.0,36,16450.0,16455.0,16450.0,16455.0,14,6,16450,49,16455,54
2016-09-27 12:10:00,12:10:07,12:10:51,55445,55644,16450.0,34,16455.0,66,16455.0,16470.0,16450.0,16470.0,341,268,16470,8,16475,106
2016-09-27 12:11:00,12:11:09,12:11:55,55664,55729,16470.0,34,16475.0,99,16475.0,16475.0,16475.0,16475.0,16,16,16470,49,16475,88
2016-09-27 12:12:00,12:12:00,12:12:57,55736,55977,16470.0,51,16475.0,86,16470.0,16480.0,16470.0,16480.0,390,314,16480,24,16485,122
2016-09-27 12:13:00,12:13:02,12:13:42,55986,56032,16480.0,26,16485.0,120,16480.0,16485.0,16480.0,16480.0,56,46,16480,134,16485,65
2016-09-27 12:14:00,12:14:14,12:14:46,56062,56210,16480.0,143,16485.0,63,16485.0,16485.0,16480.0,16480.0,312,-75,16475,69,16480,27
2016-09-27 12:15:00,12:15:00,12:15:58,56230,56452,16475.0,85,16480.0,57,16480.0,16480.0,16480.0,16480.0,231,151,16475,109,16480,17
2016-09-27 12:16:00,12:16:13,12:16:40,56474,56554,16475.0,105,16480.0,25,16480.0,16485.0,16480.0,16485.0,99,45,16480,57,16485,22
2016-09-27 12:17:00,12:17:09,12:17:56,56565,56678,16480.0,81,16485.0,15,16485.0,16485.0,16480.0,16485.0,121,21,16480,84,16485,37
2016-09-27 12:18:00,12:18:14,12:18:52,56694,56863,16480.0,82,16485.0,44,16485.0,16485.0,16470.0,16475.0,246,-134,16470,62,16475,13
2016-09-27 12:19:00,12:19:03,12:19:40,56882,56961,16470.0,61,16475.0,8,16475.0,16480.0,16475.0,16475.0,61,-9,16475,30,16480,21
2016-09-27 12:20:00,12:20:07,12:20:47,56977,57118,16475.0,36,16480.0,27,16480.0,16480.0,16475.0,16475.0,215,81,16475,45,16480,29
2016-09-27 12:21:00,12:21:47,12:21:52,57160,57209,16475.0,43,16480.0,31,16475.0,16475.0,16475.0,16475.0,60,-36,16470,70,16475,22
2016-09-27 12:22:00,12:22:32,12:22:42,57218,57244,16470.0,75,16475.0,22,16475.0,16475.0,16475.0,16475.0,35,35,16470,72,16475,18
2016-09-27 12:23:00,12:23:03,12:23:54,57259,57343,16470.0,71,16475.0,17,16475.0,16475.0,16465.0,16465.0,78,-54,16465,42,16470,44
2016-09-27 12:24:00,12:24:05,12:24:41,57359,57426,16465.0,42,16470.0,45,16470.0,16470.0,16470.0,16470.0,59,25,16470,21,16475,32
2016-09-27 12:25:00,12:25:08,12:25:43,57442,57511,16470.0,17,16475.0,47,16470.0,16470.0,16465.0,16465.0,44,-12,16465,31,16470,57
2016-09-27 12:26:00,12:26:27,12:26:34,57528,57542,16465.0,31,16470.0,58,16465.0,16465.0,16465.0,16465.0,20,-20,16460,30,16465,34
2016-09-27 12:27:00,12:27:18,12:27:18,57568,57568,16460.0,33,16465.0,27,16460.0,16460.0,16460.0,16460.0,1,-1,16460,34,16465,26
2016-09-27 12:28:00,12:28:09,12:28:37,57579,57601,16460.0,35,16465.0,28,16460.0,16465.0,16460.0,16460.0,13,-11,16460,37,16465,30
2016-09-27 12:29:00,12:29:00,12:29:51,57619,57755,16460.0,30,16465.0,35,16460.0,16470.0,16460.0,16470.0,174,162,16465,36,16470,16
2016-09-27 12:30:00,12:30:00,12:30:58,57765,57960,16465.0,36,16470.0,22,16465.0,16470.0,16460.0,16465.0,200,-44,16465,37,16470,37
2016-09-27 12:31:00,12:31:00,12:31:57,57967,58189,16465.0,20,16470.0,38,16465.0,16465.0,16460.0,16460.0,349,2,16455,30,16460,92
2016-09-27 12:32:00,12:32:07,12:32:54,58199,58328,16455.0,45,16460.0,93,16460.0,16460.0,16455.0,16455.0,175,-39,16455,31,16460,68
2016-09-27 12:33:00,12:33:15,12:33:55,58346,58376,16455.0,43,16460.0,70,16455.0,16460.0,16455.0,16460.0,4,-2,16455,72,16460,65
2016-09-27 12:34:00,12:34:06,12:34:57,58390,58471,16455.0,72,16460.0,68,16455.0,16455.0,16455.0,16455.0,90,-90,16455,38,16460,69
2016-09-27 12:35:00,12:35:35,12:35:59,58495,58548,16455.0,42,16460.0,69,16455.0,16460.0,16455.0,16455.0,105,-59,16455,48,16460,81
2016-09-27 12:36:00,12:36:06,12:36:50,58553,58643,16455.0,61,16460.0,67,16455.0,16460.0,16455.0,16460.0,173,-31,16460,59,16465,56
2016-09-27 12:37:00,12:37:19,12:37:59,58668,58760,16460.0,65,16465.0,49,16465.0,16465.0,16455.0,16460.0,159,-139,16455,13,16460,32
2016-09-27 12:38:00,12:38:17,12:38:46,58763,58895,16455.0,27,16460.0,33,16455.0,16470.0,16455.0,16470.0,176,72,16465,30,16470,17
2016-09-27 12:39:00,12:39:16,12:39:22,58927,58957,16465.0,64,16470.0,17,16470.0,16470.0,16470.0,16470.0,58,-30,16465,54,16470,49
2016-09-27 12:40:00,12:40:24,12:40:52,59005,59094,16465.0,50,16470.0,50,16465.0,16465.0,16465.0,16465.0,105,-75,16460,32,16465,13
2016-09-27 12:41:00,12:41:50,12:41:50,59135,59137,16460.0,29,16465.0,27,16465.0,16465.0,16465.0,16465.0,4,4,16460,30,16465,25
2016-09-27 12:42:00,12:42:05,12:42:52,59148,59231,16460.0,23,16465.0,25,16460.0,16460.0,16455.0,16460.0,73,-31,16460,14,16465,27
2016-09-27 12:43:00,12:43:28,12:43:28,59249,59250,16460.0,22,16465.0,37,16460.0,16460.0,16460.0,16460.0,2,-2,16460,20,16465,40
2016-09-27 12:44:00,12:44:07,12:44:57,59265,59290,16460.0,20,16465.0,46,16460.0,16465.0,16460.0,16460.0,4,0,16460,27,16465,46
2016-09-27 12:45:00,12:45:00,12:45:50,59293,59410,16460.0,24,16465.0,44,16460.0,16475.0,16460.0,16475.0,174,168,16475,10,16480,32
2016-09-27 12:46:00,12:46:01,12:46:23,59429,59454,16475.0,42,16480.0,34,16475.0,16480.0,16475.0,16480.0,3,-1,16475,29,16480,52
2016-09-27 12:47:00,12:47:27,12:47:50,59500,59557,16475.0,32,16480.0,51,16475.0,16480.0,16475.0,16480.0,69,37,16475,48,16480,5
2016-09-27 12:48:00,12:48:12,12:48:47,59587,59652,16475.0,38,16480.0,30,16475.0,16485.0,16475.0,16485.0,21,19,16480,45,16485,24
2016-09-27 12:49:00,12:49:04,12:49:57,59660,59690,16480.0,44,16485.0,34,16485.0,16485.0,16480.0,16480.0,7,1,16480,46,16485,42
2016-09-27 12:50:00,12:50:01,12:50:55,59696,59841,16480.0,48,16485.0,43,16485.0,16485.0,16480.0,16485.0,154,76,16480,51,16485,6
2016-09-27 12:51:00,12:51:37,12:51:59,59877,59895,16480.0,47,16485.0,22,16480.0,16485.0,16480.0,16485.0,5,1,16480,41,16485,19
2016-09-27 12:52:00,12:52:00,12:52:27,59899,60076,16480.0,41,16485.0,20,16480.0,16490.0,16480.0,16485.0,452,254,16480,44,16485,6
2016-09-27 12:53:00,12:53:08,12:53:46,60134,60228,16480.0,27,16485.0,41,16480.0,16480.0,16475.0,16475.0,111,-71,16475,7,16480,38
2016-09-27 12:54:00,12:54:00,12:54:56,60239,60435,16475.0,28,16480.0,32,16475.0,16475.0,16470.0,16470.0,207,7,16470,6,16475,39
2016-09-27 12:55:00,12:55:01,12:55:32,60444,60542,16470.0,18,16475.0,39,16470.0,16475.0,16470.0,16475.0,82,-5,16470,53,16475,1
2016-09-27 12:56:00,12:56:37,12:56:37,60564,60564,16470.0,41,16475.0,17,16470.0,16470.0,16470.0,16470.0,1,-1,16470,39,16475,18
2016-09-27 12:57:00,12:57:27,12:57:51,60583,60655,16470.0,41,16475.0,40,16470.0,16475.0,16465.0,16465.0,52,-45,16465,39,16470,12
2016-09-27 12:58:00,12:58:05,12:58:59,60668,60805,16465.0,41,16470.0,7,16470.0,16475.0,16470.0,16475.0,88,-18,16470,36,16480,46
2016-09-27 12:59:00,12:59:40,12:59:57,60831,60848,16475.0,25,16480.0,38,16480.0,16480.0,16475.0,16475.0,2,0,16475,33,16480,45
2016-09-27 13:00:00,13:00:00,13:00:25,60852,61025,16475.0,32,16480.0,45,16475.0,16495.0,16475.0,16495.0,252,190,16495,9,16500,96
2016-09-27 13:01:00,13:01:01,13:01:49,61065,61232,16495.0,36,16500.0,90,16495.0,16500.0,16490.0,16490.0,190,67,16485,45,16490,50
2016-09-27 13:02:00,13:02:05,13:02:42,61269,61403,16485.0,54,16490.0,38,16490.0,16490.0,16490.0,16490.0,136,-32,16490,34,16495,46
2016-09-27 13:03:00,13:03:03,13:03:34,61413,61450,16490.0,42,16495.0,23,16490.0,16495.0,16490.0,16495.0,28,-24,16490,27,16495,37
2016-09-27 13:04:00,13:04:06,13:04:56,61468,61545,16490.0,29,16495.0,28,16495.0,16500.0,16495.0,16500.0,52,52,16495,71,16500,24
2016-09-27 13:05:00,13:05:12,13:05:42,61568,61658,16495.0,65,16500.0,37,16495.0,16500.0,16495.0,16500.0,107,-29,16495,58,16500,25
2016-09-27 13:06:00,13:06:30,13:06:50,61704,61784,16495.0,54,16500.0,37,16500.0,16505.0,16500.0,16505.0,98,2,16500,127,16505,45
2016-09-27 13:07:00,13:07:01,13:07:54,61792,61881,16500.0,127,16505.0,44,16505.0,16505.0,16500.0,16505.0,70,66,16500,136,16505,48
2016-09-27 13:08:00,13:08:01,13:08:40,61886,61968,16500.0,135,16505.0,50,16500.0,16505.0,16495.0,16495.0,192,-178,16490,35,16495,26
2016-09-27 13:09:00,13:09:13,13:09:59,62000,62160,16490.0,56,16495.0,43,16495.0,16505.0,16495.0,16500.0,175,-1,16495,77,16505,55
2016-09-27 13:10:00,13:10:00,13:10:29,62163,62257,16495.0,77,16505.0,55,16500.0,16500.0,16495.0,16500.0,74,21,16495,62,16500,51
2016-09-27 13:11:00,13:11:05,13:11:55,62271,62316,16495.0,76,16500.0,52,16495.0,16500.0,16495.0,16500.0,32,-20,16495,63,16500,50
2016-09-27 13:12:00,13:12:01,13:12:50,62320,62497,16495.0,63,16500.0,52,16495.0,16500.0,16490.0,16495.0,303,91,16490,35,16495,34
2016-09-27 13:13:00,13:13:01,13:13:54,62505,62614,16490.0,38,16495.0,40,16490.0,16500.0,16490.0,16500.0,105,35,16500,45,16505,29
2016-09-27 13:14:00,13:14:01,13:14:56,62624,62688,16500.0,37,16505.0,31,16505.0,16505.0,16495.0,16495.0,55,-31,16495,123,16500,37
2016-09-27 13:15:00,13:15:14,13:15:58,62700,62863,16495.0,129,16500.0,40,16495.0,16505.0,16495.0,16500.0,190,-12,16500,75,16505,60
2016-09-27 13:16:00,13:16:18,13:16:46,62875,62923,16500.0,80,16505.0,62,16500.0,16500.0,16495.0,16495.0,83,-83,16495,54,16500,75
2016-09-27 13:17:00,13:17:01,13:17:42,62934,63013,16495.0,58,16500.0,82,16495.0,16495.0,16490.0,16490.0,134,-128,16485,48,16490,33
2016-09-27 13:18:00,13:18:28,13:18:33,63041,63077,16485.0,74,16490.0,63,16490.0,16490.0,16480.0,16480.0,80,-78,16480,28,16485,62
2016-09-27 13:19:00,13:19:00,13:19:57,63118,63323,16480.0,52,16485.0,56,16480.0,16485.0,16480.0,16485.0,181,-17,16480,57,16490,48
2016-09-27 13:20:00,13:20:08,13:20:48,63337,63495,16480.0,51,16485.0,76,16480.0,16480.0,16475.0,16475.0,222,-50,16475,28,16480,40
2016-09-27 13:21:00,13:21:10,13:21:57,63508,63677,16475.0,38,16480.0,50,16475.0,16475.0,16465.0,16465.0,164,-138,16460,46,16465,7
2016-09-27 13:22:00,13:22:05,13:22:57,63695,63840,16460.0,37,16465.0,43,16465.0,16465.0,16460.0,16465.0,103,69,16460,66,16465,21
2016-09-27 13:23:00,13:23:03,13:23:56,63845,63960,16460.0,69,16465.0,21,16465.0,16480.0,16465.0,16480.0,134,134,16475,44,16480,38
2016-09-27 13:24:00,13:24:02,13:24:46,63970,64142,16475.0,56,16480.0,31,16480.0,16480.0,16475.0,16480.0,197,7,16475,39,16480,33
2016-09-27 13:25:00,13:25:11,13:25:54,64169,64278,16475.0,62,16480.0,34,16480.0,16480.0,16470.0,16470.0,97,-73,16465,48,16470,10
2016-09-27 13:26:00,13:26:17,13:26:59,64322,64421,16465.0,46,16470.0,39,16465.0,16470.0,16465.0,16470.0,107,105,16465,61,16470,20
2016-09-27 13:27:00,13:27:11,13:27:59,64429,64512,16465.0,65,16470.0,16,16465.0,16475.0,16465.0,16470.0,34,30,16470,52,16475,11
2016-09-27 13:28:00,13:28:01,13:28:59,64514,64613,16470.0,52,16475.0,35,16470.0,16480.0,16470.0,16480.0,53,49,16475,44,16480,33
2016-09-27 13:29:00,13:29:03,13:29:59,64621,64803,16475.0,42,16480.0,22,16480.0,16485.0,16470.0,16470.0,180,8,16470,53,16475,26
2016-09-27 13:30:00,13:30:03,13:30:51,64812,64977,16470.0,51,16475.0,26,16470.0,16475.0,16465.0,16465.0,146,-26,16465,9,16470,42
2016-09-27 13:31:00,13:31:08,13:31:56,64996,65104,16465.0,26,16470.0,43,16465.0,16475.0,16460.0,16475.0,94,60,16470,64,16475,14
2016-09-27 13:32:00,13:32:05,13:32:57,65126,65262,16470.0,28,16475.0,32,16470.0,16470.0,16465.0,16465.0,83,-51,16465,22,16470,48
2016-09-27 13:33:00,13:33:01,13:33:57,65272,65378,16465.0,35,16470.0,34,16470.0,16475.0,16470.0,16470.0,79,15,16465,44,16470,18
2016-09-27 13:34:00,13:34:06,13:34:53,65395,65458,16465.0,42,16470.0,17,16470.0,16475.0,16470.0,16475.0,45,43,16475,19,16480,49
2016-09-27 13:35:00,13:35:06,13:35:58,65482,65589,16475.0,55,16480.0,21,16480.0,16485.0,16475.0,16485.0,70,16,16480,38,16485,47
2016-09-27 13:36:00,13:36:10,13:36:53,65596,65713,16480.0,40,16485.0,46,16480.0,16485.0,16480.0,16480.0,119,-107,16480,31,16485,46
2016-09-27 13:37:00,13:37:10,13:37:51,65731,65878,16480.0,33,16485.0,48,16480.0,16490.0,16480.0,16490.0,165,67,16485,43,16490,31
2016-09-27 13:38:00,13:38:02,13:38:55,65891,66061,16485.0,42,16490.0,41,16485.0,16490.0,16485.0,16485.0,165,19,16485,19,16490,64
2016-09-27 13:39:00,13:39:04,13:39:57,66074,66187,16485.0,43,16490.0,53,16485.0,16485.0,16485.0,16485.0,121,-15,16485,8,16490,76
2016-09-27 13:40:00,13:40:02,13:40:59,66198,66401,16485.0,31,16490.0,70,16485.0,16500.0,16485.0,16500.0,256,90,16495,5,16500,105
2016-09-27 13:41:00,13:41:03,13:41:55,66408,66536,16495.0,43,16500.0,99,16495.0,16495.0,16490.0,16495.0,108,30,16490,62,16495,1
2016-09-27 13:42:00,13:42:08,13:42:55,66547,66725,16490.0,60,16495.0,6,16495.0,16500.0,16495.0,16495.0,347,13,16495,36,16500,58
2016-09-27 13:43:00,13:43:00,13:43:58,66729,66940,16495.0,34,16500.0,61,16500.0,16500.0,16490.0,16490.0,218,-170,16490,3,16495,68
2016-09-27 13:44:00,13:44:02,13:44:57,66950,67090,16490.0,5,16495.0,71,16490.0,16490.0,16485.0,16490.0,123,-105,16485,39,16490,55
2016-09-27 13:45:00,13:45:02,13:45:59,67095,67357,16485.0,47,16490.0,56,16490.0,16505.0,16485.0,16505.0,345,201,16500,25,16505,60
2016-09-27 13:46:00,13:46:04,13:46:56,67366,67558,16500.0,34,16505.0,62,16505.0,16510.0,16500.0,16505.0,287,151,16505,28,16510,50
2016-09-27 13:47:00,13:47:01,13:47:54,67563,67730,16505.0,33,16510.0,50,16510.0,16510.0,16505.0,16510.0,165,63,16505,106,16510,78
2016-09-27 13:48:00,13:48:08,13:48:59,67737,67841,16505.0,108,16510.0,75,16505.0,16510.0,16505.0,16505.0,109,87,16505,87,16510,50
2016-09-27 13:49:00,13:49:02,13:49:50,67850,68065,16505.0,90,16510.0,54,16510.0,16515.0,16505.0,16505.0,312,106,16505,34,16510,55
2016-09-27 13:50:00,13:50:00,13:50:57,68077,68373,16505.0,40,16510.0,60,16510.0,16515.0,16505.0,16515.0,405,157,16510,58,16515,8
2016-09-27 13:51:00,13:51:02,13:51:59,68384,68805,16510.0,60,16515.0,25,16515.0,16530.0,16515.0,16530.0,892,428,16525,66,16530,36
2016-09-27 13:52:00,13:52:03,13:52:59,68815,69063,16525.0,55,16530.0,52,16530.0,16530.0,16520.0,16520.0,272,-62,16520,258,16525,43
2016-09-27 13:53:00,13:53:08,13:53:55,69072,69266,16520.0,261,16525.0,44,16525.0,16525.0,16515.0,16525.0,201,31,16520,52,16525,66
2016-09-27 13:54:00,13:54:01,13:54:49,69275,69447,16520.0,61,16525.0,65,16520.0,16530.0,16520.0,16525.0,173,111,16520,77,16530,83
2016-09-27 13:55:00,13:55:01,13:55:55,69470,69716,16525.0,35,16530.0,77,16525.0,16530.0,16520.0,16525.0,254,-26,16520,69,16525,18
2016-09-27 13:56:00,13:56:00,13:56:50,69726,69943,16520.0,66,16525.0,50,16525.0,16525.0,16520.0,16520.0,222,60,16515,43,16520,43
2016-09-27 13:57:00,13:57:01,13:57:58,69964,70245,16515.0,57,16520.0,61,16515.0,16525.0,16515.0,16515.0,329,175,16515,21,16520,60
2016-09-27 13:58:00,13:58:00,13:58:59,70252,70445,16515.0,30,16520.0,62,16520.0,16520.0,16515.0,16515.0,233,-31,16515,59,16520,59
2016-09-27 13:59:00,13:59:02,13:59:59,70455,71048,16515.0,75,16520.0,52,16515.0,16535.0,16515.0,16530.0,977,555,16540,1,16545,78
2016-09-27 14:00:00,14:00:00,14:00:57,71049,72139,16530.0,11,16535.0,145,16530.0,16555.0,16525.0,16535.0,2479,183,16535,30,16540,79
2016-09-27 14:01:00,14:01:00,14:01:58,72152,72483,16535.0,11,16540.0,108,16535.0,16535.0,16525.0,16530.0,497,-150,16525,108,16530,37
2016-09-27 14:02:00,14:02:00,14:02:59,72488,72759,16525.0,109,16530.0,38,16525.0,16535.0,16525.0,16530.0,496,-386,16530,23,16535,154
2016-09-27 14:03:00,14:03:00,14:03:58,72762,73066,16530.0,23,16535.0,154,16530.0,16540.0,16525.0,16540.0,564,226,16535,70,16540,117
2016-09-27 14:04:00,14:04:00,14:04:58,73071,73227,16535.0,68,16540.0,118,16535.0,16535.0,16530.0,16530.0,134,-126,16530,92,16535,147
2016-09-27 14:05:00,14:05:01,14:05:54,73234,73424,16530.0,57,16535.0,151,16535.0,16535.0,16530.0,16535.0,490,-24,16530,190,16535,37
2016-09-27 14:06:00,14:06:03,14:06:59,73433,73719,16530.0,205,16535.0,71,16535.0,16545.0,16530.0,16545.0,554,222,16540,137,16545,93
2016-09-27 14:07:00,14:07:00,14:07:57,73720,73968,16540.0,115,16545.0,132,16545.0,16550.0,16540.0,16545.0,448,294,16545,80,16550,161
2016-09-27 14:08:00,14:08:01,14:08:59,73976,74299,16545.0,69,16550.0,154,16545.0,16545.0,16540.0,16545.0,860,-252,16545,51,16550,174
