,ST,ET,sidx,eidx,bB,bBS,bA,bAS,O,H,L,C,V,OF,eB,eBS,eA,eAS
2016-07-06 08:00:00,08:00:00,08:00:57,1681,2193,15375.0,30,15380.0,16,15375.0,15385.0,15360.0,15370.0,701,20,15365,10,15370,11
2016-07-06 08:01:00,08:01:00,08:01:59,2201,2474,15365.0,11,15370.0,13,15365.0,15370.0,15355.0,15370.0,255,-53,15365,1,15370,44
2016-07-06 08:02:00,08:02:00,08:02:58,2476,2851,15365.0,11,15370.0,44,15365.0,15370.0,15350.0,15365.0,413,33,15365,13,15370,10
2016-07-06 08:03:00,08:03:00,08:03:57,2856,3262,15365.0,14,15370.0,11,15370.0,15395.0,15370.0,15390.0,426,96,15385,15,15390,5
2016-07-06 08:04:00,08:04:04,08:04:59,3275,3531,15385.0,20,15390.0,9,15385.0,15400.0,15385.0,15400.0,208,48,15400,15,15405,12
2016-07-06 08:05:00,08:05:01,08:05:51,3539,3884,15400.0,13,15405.0,14,15405.0,15405.0,15380.0,15390.0,402,-112,15385,19,15390,21
2016-07-06 08:06:00,08:06:01,08:06:59,3903,4162,15385.0,12,15390.0,24,15390.0,15390.0,15380.0,15390.0,200,8,15390,10,15395,21
2016-07-06 08:07:00,08:07:00,08:07:59,4165,4692,15390.0,10,15395.0,21,15390.0,15390.0,15360.0,15360.0,486,-144,15355,23,15360,9
2016-07-06 08:08:00,08:08:02,08:08:59,4701,5214,15355.0,18,15360.0,15,15355.0,15360.0,15335.0,15345.0,668,-351,15345,8,15350,28
2016-07-06 08:09:00,08:09:00,08:09:57,5217,5479,15345.0,8,15350.0,28,15345.0,15350.0,15340.0,15345.0,248,-24,15340,24,15350,22
2016-07-06 08:10:00,08:10:00,08:10:58,5484,5778,15345.0,2,15350.0,23,15345.0,15350.0,15330.0,15335.0,291,25,15335,2,15340,29
2016-07-06 08:11:00,08:11:00,08:11:53,5789,6067,15335.0,10,15340.0,22,15335.0,15335.0,15320.0,15320.0,270,-61,15320,34,15325,15
2016-07-06 08:12:00,08:12:01,08:12:57,6081,6253,15320.0,31,15325.0,16,15325.0,15330.0,15320.0,15325.0,203,-13,15325,19,15335,42
2016-07-06 08:13:00,08:13:01,08:13:59,6258,6536,15325.0,21,15330.0,59,15330.0,15335.0,15325.0,15335.0,310,108,15335,4,15340,57
2016-07-06 08:14:00,08:14:00,08:14:52,6540,6698,15335.0,10,15340.0,57,15335.0,15340.0,15330.0,15340.0,141,59,15340,7,15345,48
2016-07-06 08:15:00,08:15:01,08:15:57,6716,7059,15340.0,13,15345.0,49,15345.0,15345.0,15330.0,15335.0,313,-92,15335,7,15340,34
2016-07-06 08:16:00,08:16:00,08:16:49,7063,7314,15335.0,3,15340.0,34,15335.0,15345.0,15330.0,15340.0,276,-40,15340,6,15345,25
2016-07-06 08:17:00,08:17:03,08:17:59,7327,7687,15340.0,29,15345.0,16,15340.0,15355.0,15340.0,15345.0,353,-107,15340,34,15345,6
2016-07-06 08:18:00,08:18:02,08:18:57,7697,7978,15345.0,19,15350.0,23,15350.0,15360.0,15350.0,15350.0,276,-43,15350,4,15355,31
2016-07-06 08:19:00,08:19:00,08:19:56,7986,8344,15350.0,16,15355.0,31,15350.0,15350.0,15335.0,15335.0,332,-72,15335,12,15340,29
2016-07-06 08:20:00,08:20:03,08:20:58,8358,8653,15335.0,17,15340.0,23,15335.0,15335.0,15330.0,15335.0,278,-91,15335,6,15340,51
2016-07-06 08:21:00,08:21:01,08:21:59,8660,8960,15335.0,8,15340.0,53,15335.0,15350.0,15330.0,15345.0,307,61,15345,8,15350,57
2016-07-06 08:22:00,08:22:03,08:22:58,8965,9215,15345.0,10,15350.0,57,15345.0,15345.0,15330.0,15335.0,287,-140,15335,12,15340,24
2016-07-06 08:23:00,08:23:01,08:23:54,9221,9353,15335.0,16,15340.0,24,15335.0,15335.0,15330.0,15330.0,58,-26,15330,11,15340,45
2016-07-06 08:24:00,08:24:00,08:24:58,9357,9612,15330.0,16,15335.0,30,15330.0,15335.0,15330.0,15335.0,229,46,15330,46,15335,41
2016-07-06 08:25:00,08:25:00,08:25:59,9618,9962,15330.0,33,15335.0,46,15330.0,15335.0,15325.0,15330.0,383,-39,15325,24,15330,11
2016-07-06 08:26:00,08:26:02,08:26:58,9972,10194,15325.0,21,15330.0,11,15325.0,15335.0,15325.0,15330.0,222,-70,15325,36,15330,20
2016-07-06 08:27:00,08:27:02,08:27:56,10206,10726,15325.0,32,15330.0,12,15325.0,15335.0,15305.0,15330.0,755,-168,15325,30,15330,4
2016-07-06 08:28:00,08:28:04,08:28:57,10744,10979,15325.0,49,15330.0,28,15330.0,15330.0,15315.0,15315.0,296,-25,15310,26,15315,22
2016-07-06 08:29:00,08:29:00,08:29:54,10982,11276,15310.0,26,15315.0,22,15315.0,15325.0,15310.0,15315.0,310,50,15310,30,15315,8
2016-07-06 08:30:00,08:30:00,08:30:58,11282,11523,15310.0,31,15315.0,10,15315.0,15325.0,15310.0,15315.0,292,-56,15310,29,15315,15
2016-07-06 08:31:00,08:31:00,08:31:56,11531,11736,15310.0,25,15315.0,11,15315.0,15315.0,15305.0,15315.0,193,-35,15310,30,15315,25
2016-07-06 08:32:00,08:32:00,08:32:58,11739,11908,15310.0,30,15315.0,25,15315.0,15315.0,15310.0,15315.0,164,-75,15315,2,15320,37
2016-07-06 08:33:00,08:33:10,08:33:54,11914,12088,15315.0,5,15320.0,39,15315.0,15315.0,15310.0,15315.0,140,3,15315,2,15315,5
2016-07-06 08:34:00,08:34:13,08:34:56,12111,12227,15310.0,28,15315.0,20,15315.0,15315.0,15310.0,15310.0,117,-65,15310,6,15315,44
2016-07-06 08:35:00,08:35:01,08:35:59,12236,12438,15310.0,14,15315.0,38,15310.0,15320.0,15310.0,15315.0,209,1,15310,29,15320,30
2016-07-06 08:36:00,08:36:01,08:36:54,12445,12619,15310.0,28,15315.0,24,15315.0,15315.0,15310.0,15315.0,144,76,15315,5,15320,33
2016-07-06 08:37:00,08:37:02,08:37:45,12632,12817,15315.0,17,15320.0,35,15315.0,15325.0,15315.0,15325.0,145,-18,15320,27,15325,4
2016-07-06 08:38:00,08:38:01,08:38:57,12839,13024,15320.0,15,15325.0,59,15320.0,15325.0,15315.0,15320.0,374,228,15315,29,15320,12
2016-07-06 08:39:00,08:39:00,08:39:52,13032,13366,15315.0,26,15320.0,26,15315.0,15315.0,15295.0,15300.0,329,-37,15295,35,15305,36
2016-07-06 08:40:00,08:40:02,08:40:58,13381,13632,15300.0,23,15305.0,36,15300.0,15310.0,15300.0,15305.0,231,-36,15300,22,15305,20
2016-07-06 08:41:00,08:41:01,08:41:48,13639,13738,15300.0,29,15305.0,32,15300.0,15305.0,15300.0,15305.0,65,43,15305,23,15310,30
2016-07-06 08:42:00,08:42:04,08:42:55,13754,13840,15305.0,20,15310.0,37,15305.0,15310.0,15305.0,15305.0,61,7,15305,27,15310,27
2016-07-06 08:43:00,08:43:09,08:43:56,13854,14080,15305.0,36,15310.0,10,15310.0,15320.0,15310.0,15315.0,238,72,15310,29,15320,6
2016-07-06 08:44:00,08:44:01,08:44:59,14084,14336,15310.0,28,15320.0,27,15320.0,15335.0,15320.0,15330.0,219,-25,15325,34,15335,44
2016-07-06 08:45:00,08:45:00,08:45:59,14341,14570,15330.0,3,15335.0,47,15330.0,15335.0,15325.0,15335.0,211,97,15330,47,15335,5
2016-07-06 08:46:00,08:46:00,08:46:45,14573,14704,15330.0,47,15335.0,5,15335.0,15345.0,15335.0,15340.0,103,91,15335,25,15340,14
2016-07-06 08:47:00,08:47:02,08:47:40,14729,14853,15335.0,27,15340.0,25,15335.0,15340.0,15330.0,15335.0,94,-50,15330,16,15335,17
2016-07-06 08:48:00,08:48:02,08:48:58,14882,15003,15330.0,17,15335.0,18,15330.0,15330.0,15330.0,15330.0,59,-47,15325,27,15330,9
2016-07-06 08:49:00,08:49:02,08:49:37,15013,15050,15325.0,18,15330.0,22,15325.0,15325.0,15325.0,15325.0,8,-6,15320,27,15325,26
2016-07-06 08:50:00,08:50:06,08:50:21,15072,15106,15320.0,22,15325.0,38,15325.0,15325.0,15320.0,15325.0,39,29,15325,31,15330,18
2016-07-06 08:51:00,08:51:01,08:51:59,15144,15256,15325.0,30,15330.0,47,15325.0,15335.0,15325.0,15335.0,86,8,15330,35,15335,19
2016-07-06 08:52:00,08:52:00,08:52:59,15257,15420,15325.0,27,15330.0,33,15335.0,15335.0,15330.0,15330.0,132,16,15330,18,15335,38
2016-07-06 08:53:00,08:53:00,08:53:55,15423,15583,15330.0,18,15335.0,38,15330.0,15330.0,15325.0,15330.0,87,64,15330,19,15335,26
2016-07-06 08:54:00,08:54:06,08:54:59,15595,15817,15330.0,20,15335.0,26,15330.0,15335.0,15310.0,15315.0,207,-47,15315,21,15320,23
2016-07-06 08:55:00,08:55:02,08:55:46,15824,16072,15315.0,13,15320.0,30,15315.0,15320.0,15310.0,15315.0,245,9,15310,29,15315,6
2016-07-06 08:56:00,08:56:07,08:56:57,16090,16222,15310.0,19,15315.0,16,15310.0,15315.0,15310.0,15315.0,122,2,15310,28,15315,11
2016-07-06 08:57:00,08:57:02,08:57:59,16230,16348,15310.0,25,15315.0,22,15310.0,15320.0,15310.0,15320.0,64,-10,15315,26,15320,45
2016-07-06 08:58:00,08:58:02,08:58:45,16353,16459,15315.0,28,15320.0,45,15315.0,15320.0,15315.0,15320.0,103,31,15315,45,15320,34
2016-07-06 08:59:00,08:59:21,08:59:53,16494,16576,15315.0,46,15320.0,21,15320.0,15330.0,15320.0,15330.0,63,-1,15325,25,15330,16
2016-07-06 09:00:00,09:00:01,09:00:44,16589,16702,15325.0,12,15330.0,22,15325.0,15325.0,15320.0,15320.0,58,-36,15315,49,15320,11
2016-07-06 09:01:00,09:01:00,09:01:00,0,0,0.0,0,0.0,0,15320.0,15320.0,15320.0,15320.0,0,0,0,0,0,0
2016-07-06 09:02:00,09:02:26,09:02:58,16774,17127,15315.0,36,15320.0,32,15315.0,15315.0,15290.0,15300.0,516,-338,15295,22,15300,20
2016-07-06 09:03:00,09:03:02,09:03:59,17135,17630,15295.0,20,15300.0,22,15295.0,15300.0,15285.0,15300.0,605,-339,15295,9,15300,57
2016-07-06 09:04:00,09:04:01,09:04:52,17634,17848,15295.0,8,15300.0,57,15295.0,15295.0,15285.0,15290.0,194,5,15285,28,15290,10
2016-07-06 09:05:00,09:05:03,09:05:59,17871,18396,15285.0,12,15290.0,28,15285.0,15285.0,15260.0,15265.0,785,-309,15260,38,15270,44
2016-07-06 09:06:00,09:06:02,09:06:49,18407,18767,15265.0,28,15270.0,36,15265.0,15275.0,15260.0,15265.0,472,-117,15265,30,15270,47
2016-07-06 09:07:00,09:07:02,09:07:54,18782,18980,15265.0,43,15270.0,47,15265.0,15265.0,15260.0,15260.0,202,-107,15260,22,15265,27
2016-07-06 09:08:00,09:08:02,09:08:58,18990,19141,15260.0,26,15265.0,22,15265.0,15270.0,15265.0,15270.0,150,14,15265,34,15270,34
2016-07-06 09:09:00,09:09:02,09:09:58,19149,19567,15265.0,31,15270.0,38,15265.0,15265.0,15240.0,15260.0,642,-276,15260,3,15265,79
2016-07-06 09:10:00,09:10:05,09:10:59,19573,19846,15260.0,6,15265.0,79,15265.0,15270.0,15255.0,15255.0,326,26,15250,32,15255,13
2016-07-06 09:11:00,09:11:01,09:11:59,19853,20066,15250.0,28,15255.0,12,15255.0,15270.0,15250.0,15265.0,158,58,15265,12,15270,24
2016-07-06 09:12:00,09:12:01,09:12:21,20071,20135,15265.0,14,15270.0,24,15270.0,15270.0,15260.0,15260.0,32,-18,15255,25,15265,27
2016-07-06 09:13:00,09:13:05,09:13:59,20159,20263,15260.0,13,15265.0,29,15265.0,15270.0,15260.0,15270.0,126,60,15270,18,15270,2
2016-07-06 09:14:00,09:14:00,09:14:57,20267,20374,15270.0,18,15275.0,17,15270.0,15275.0,15270.0,15270.0,54,-24,15270,10,15275,21
2016-07-06 09:15:00,09:15:00,09:15:48,20380,20621,15270.0,15,15275.0,19,15270.0,15270.0,15255.0,15260.0,267,-15,15255,22,15260,10
2016-07-06 09:16:00,09:16:12,09:16:58,20648,20861,15255.0,23,15260.0,30,15255.0,15260.0,15240.0,15250.0,239,-140,15245,28,15250,7
2016-07-06 09:17:00,09:17:00,09:17:57,20866,21258,15245.0,28,15250.0,11,15245.0,15250.0,15235.0,15240.0,465,-283,15240,20,15245,24
2016-07-06 09:18:00,09:18:00,09:18:58,21266,21382,15240.0,34,15245.0,14,15245.0,15245.0,15240.0,15245.0,82,48,15245,9,15245,1
2016-07-06 09:19:00,09:19:02,09:19:54,21389,21584,15240.0,28,15245.0,5,15245.0,15255.0,15245.0,15250.0,212,93,15250,15,15255,29
2016-07-06 09:20:00,09:20:00,09:20:55,21603,21889,15250.0,20,15255.0,31,15250.0,15255.0,15245.0,15250.0,261,-159,15250,12,15255,35
2016-07-06 09:21:00,09:21:03,09:21:56,21898,22062,15250.0,24,15255.0,33,15250.0,15250.0,15240.0,15250.0,96,-46,15245,23,15250,14
2016-07-06 09:22:00,09:22:01,09:22:57,22072,22239,15245.0,13,15250.0,36,15245.0,15255.0,15240.0,15250.0,116,-20,15250,10,15255,35
2016-07-06 09:23:00,09:23:01,09:23:55,22249,22514,15250.0,11,15255.0,38,15250.0,15250.0,15240.0,15245.0,239,-126,15240,29,15245,4
2016-07-06 09:24:00,09:24:01,09:24:59,22536,22882,15240.0,30,15245.0,13,15240.0,15250.0,15230.0,15230.0,313,-54,15230,4,15235,34
2016-07-06 09:25:00,09:25:00,09:25:58,22889,23778,15230.0,8,15235.0,43,15230.0,15235.0,15200.0,15205.0,1341,-435,15205,23,15210,37
2016-07-06 09:26:00,09:26:03,09:26:57,23792,24034,15205.0,9,15210.0,41,15205.0,15215.0,15205.0,15205.0,203,-21,15205,18,15210,26
2016-07-06 09:27:00,09:27:00,09:27:58,24043,24401,15205.0,31,15210.0,22,15210.0,15210.0,15200.0,15200.0,355,-50,15200,12,15205,30
2016-07-06 09:28:00,09:28:00,09:28:59,24408,24805,15200.0,29,15205.0,19,15205.0,15210.0,15195.0,15195.0,353,57,15195,22,15200,18
2016-07-06 09:29:00,09:29:00,09:29:56,24810,25028,15195.0,28,15200.0,10,15200.0,15205.0,15195.0,15205.0,185,33,15200,49,15205,29
2016-07-06 09:30:00,09:30:00,09:30:59,25037,25301,15200.0,50,15205.0,7,15205.0,15210.0,15185.0,15190.0,227,-119,15185,103,15190,33
2016-07-06 09:31:00,09:31:01,09:31:59,25306,25666,15185.0,104,15190.0,36,15185.0,15200.0,15185.0,15190.0,391,16,15190,22,15195,34
2016-07-06 09:32:00,09:32:03,09:32:56,25676,25864,15190.0,28,15195.0,38,15190.0,15200.0,15190.0,15200.0,126,-20,15200,7,15205,42
2016-07-06 09:33:00,09:33:03,09:33:52,25876,26190,15200.0,30,15205.0,33,15200.0,15215.0,15200.0,15210.0,313,76,15210,1,15215,44
2016-07-06 09:34:00,09:34:00,09:34:59,26209,26579,15210.0,21,15215.0,38,15210.0,15215.0,15205.0,15215.0,402,-130,15210,27,15215,20
2016-07-06 09:35:00,09:35:08,09:35:57,26606,26944,15210.0,18,15215.0,33,15210.0,15225.0,15210.0,15225.0,366,242,15225,23,15230,40
2016-07-06 09:36:00,09:36:00,09:36:53,26955,27190,15225.0,13,15230.0,40,15225.0,15230.0,15220.0,15220.0,173,-35,15215,31,15220,14
2016-07-06 09:37:00,09:37:02,09:37:46,27205,27335,15215.0,20,15220.0,26,15215.0,15225.0,15215.0,15225.0,89,11,15220,13,15225,21
2016-07-06 09:38:00,09:38:00,09:38:56,27360,27595,15220.0,18,15225.0,26,15220.0,15235.0,15220.0,15225.0,209,-11,15220,21,15225,18
2016-07-06 09:39:00,09:39:00,09:39:56,27606,27793,15220.0,17,15225.0,32,15220.0,15230.0,15215.0,15230.0,155,23,15225,40,15230,15
2016-07-06 09:40:00,09:40:06,09:40:55,27816,28123,15225.0,46,15230.0,33,15230.0,15230.0,15225.0,15230.0,290,85,15225,21,15235,47
2016-07-06 09:41:00,09:41:01,09:41:25,28130,28276,15225.0,20,15230.0,29,15225.0,15225.0,15215.0,15225.0,127,38,15220,21,15225,8
2016-07-06 09:42:00,09:42:02,09:42:55,28309,28431,15220.0,25,15225.0,17,15220.0,15220.0,15215.0,15220.0,67,-15,15215,14,15220,22
2016-07-06 09:43:00,09:43:04,09:43:40,28448,28571,15215.0,35,15220.0,30,15215.0,15220.0,15210.0,15210.0,108,-42,15210,14,15215,21
2016-07-06 09:44:00,09:44:28,09:44:54,28620,28728,15210.0,24,15215.0,26,15210.0,15215.0,15210.0,15215.0,94,68,15210,42,15220,34
2016-07-06 09:45:00,09:45:00,09:45:59,28743,28940,15210.0,39,15215.0,7,15210.0,15220.0,15210.0,15210.0,172,6,15210,27,15215,23
2016-07-06 09:46:00,09:46:00,09:46:55,28941,29078,15215.0,17,15220.0,32,15215.0,15230.0,15215.0,15225.0,86,47,15220,51,15225,8
2016-07-06 09:47:00,09:47:02,09:47:53,29092,29293,15220.0,32,15225.0,46,15220.0,15225.0,15215.0,15220.0,208,-34,15220,9,15225,55
2016-07-06 09:48:00,09:48:05,09:48:34,29308,29411,15220.0,33,15225.0,50,15220.0,15230.0,15220.0,15230.0,114,66,15225,33,15235,49
2016-07-06 09:49:00,09:49:06,09:49:57,29445,29602,15225.0,11,15230.0,29,15225.0,15225.0,15210.0,15210.0,130,-20,15210,9,15215,54
2016-07-06 09:50:00,09:50:01,09:50:58,29612,29860,15210.0,17,15215.0,53,15210.0,15215.0,15210.0,15215.0,242,-64,15210,32,15215,42
2016-07-06 09:51:00,09:51:05,09:51:59,29872,30017,15210.0,29,15215.0,46,15215.0,15215.0,15215.0,15215.0,116,92,15210,34,15220,50
2016-07-06 09:52:00,09:52:04,09:52:51,30024,30130,15215.0,5,15220.0,50,15215.0,15220.0,15215.0,15215.0,99,-26,15215,5,15220,51
2016-07-06 09:53:00,09:53:04,09:53:55,30144,30380,15215.0,10,15220.0,50,15220.0,15220.0,15205.0,15215.0,317,-248,15210,38,15215,59
2016-07-06 09:54:00,09:54:02,09:54:59,30391,30714,15210.0,19,15215.0,67,15210.0,15210.0,15200.0,15205.0,362,-144,15205,5,15210,33
2016-07-06 09:55:00,09:55:00,09:55:42,30719,30890,15205.0,13,15210.0,34,15205.0,15205.0,15195.0,15200.0,137,-83,15195,29,15200,10
2016-07-06 09:56:00,09:56:00,09:56:58,30910,31092,15195.0,10,15200.0,33,15195.0,15200.0,15195.0,15195.0,123,73,15195,18,15200,36
2016-07-06 09:57:00,09:57:00,09:57:55,31096,31320,15195.0,18,15200.0,33,15200.0,15220.0,15190.0,15210.0,211,105,15205,34,15210,3
2016-07-06 09:58:00,09:58:00,09:58:56,31330,31481,15210.0,14,15215.0,35,15210.0,15210.0,15195.0,15195.0,120,-36,15190,29,15195,10
2016-07-06 09:59:00,09:59:01,09:59:58,31497,31722,15190.0,19,15195.0,26,15190.0,15200.0,15190.0,15200.0,165,11,15195,33,15200,2
2016-07-06 10:00:00,10:00:00,10:00:32,31727,31860,15195.0,30,15200.0,24,15200.0,15200.0,15195.0,15200.0,95,21,15195,31,15200,16
2016-07-06 10:01:00,10:01:02,10:01:47,31899,32059,15195.0,34,15200.0,22,15195.0,15200.0,15195.0,15195.0,106,8,15190,29,15200,35
2016-07-06 10:02:00,10:02:01,10:02:59,32078,32329,15190.0,22,15195.0,18,15190.0,15190.0,15180.0,15180.0,299,-189,15175,27,15180,25
2016-07-06 10:03:00,10:03:00,10:03:59,32334,32570,15175.0,28,15180.0,24,15175.0,15180.0,15170.0,15180.0,208,68,15180,31,15185,18
2016-07-06 10:04:00,10:04:08,10:04:58,32583,32864,15180.0,36,15185.0,14,15185.0,15190.0,15170.0,15175.0,303,-23,15170,32,15175,3
2016-07-06 10:05:00,10:05:00,10:05:56,32868,33260,15170.0,32,15175.0,2,15175.0,15175.0,15155.0,15160.0,362,-96,15160,25,15165,31
2016-07-06 10:06:00,10:06:03,10:06:59,33274,33513,15160.0,13,15165.0,32,15160.0,15170.0,15160.0,15170.0,175,-14,15170,4,15175,52
2016-07-06 10:07:00,10:07:01,10:07:57,33521,33811,15170.0,33,15175.0,43,15175.0,15175.0,15165.0,15170.0,350,-40,15170,1,15175,32
2016-07-06 10:08:00,10:08:01,10:08:58,33822,34061,15170.0,34,15175.0,18,15170.0,15170.0,15165.0,15170.0,188,4,15170,22,15175,36
2016-07-06 10:09:00,10:09:02,10:09:53,34066,34183,15170.0,15,15175.0,37,15170.0,15175.0,15165.0,15175.0,56,33,15170,27,15175,30
2016-07-06 10:10:00,10:10:01,10:10:55,34207,34418,15170.0,28,15175.0,31,15170.0,15180.0,15165.0,15170.0,236,-81,15170,28,15175,41
2016-07-06 10:11:00,10:11:05,10:11:53,34431,34592,15170.0,25,15175.0,67,15170.0,15170.0,15165.0,15165.0,112,-41,15165,1,15170,42
2016-07-06 10:12:00,10:12:01,10:12:49,34606,34780,15165.0,43,15170.0,11,15165.0,15165.0,15160.0,15165.0,191,-31,15160,48,15165,12
2016-07-06 10:13:00,10:13:01,10:13:51,34798,35130,15160.0,43,15165.0,42,15160.0,15165.0,15145.0,15165.0,415,-57,15165,9,15170,45
2016-07-06 10:14:00,10:14:03,10:14:51,35142,35308,15165.0,17,15170.0,37,15165.0,15165.0,15160.0,15165.0,153,-59,15165,10,15170,35
2016-07-06 10:15:00,10:15:02,10:15:59,35326,35550,15165.0,33,15170.0,23,15165.0,15170.0,15160.0,15165.0,165,5,15160,32,15165,5
2016-07-06 10:16:00,10:16:00,10:16:57,35553,35727,15160.0,32,15165.0,5,15165.0,15170.0,15165.0,15165.0,122,-11,15165,9,15170,39
2016-07-06 10:17:00,10:17:14,10:17:58,35745,35959,15165.0,20,15170.0,32,15165.0,15165.0,15155.0,15160.0,207,-51,15160,9,15165,38
2016-07-06 10:18:00,10:18:00,10:18:59,35970,36141,15160.0,20,15165.0,37,15160.0,15170.0,15160.0,15170.0,176,48,15165,40,15175,55
2016-07-06 10:19:00,10:19:06,10:19:58,36150,36376,15165.0,41,15170.0,15,15165.0,15170.0,15160.0,15160.0,222,6,15160,21,15165,35
2016-07-06 10:20:00,10:20:02,10:20:57,36383,36565,15160.0,39,15165.0,13,15160.0,15160.0,15155.0,15155.0,110,-42,15150,32,15155,16
2016-07-06 10:21:00,10:21:11,10:21:55,36572,36754,15150.0,33,15155.0,13,15150.0,15155.0,15150.0,15155.0,193,-93,15150,35,15160,30
2016-07-06 10:22:00,10:22:02,10:22:57,36767,36901,15155.0,30,15160.0,26,15160.0,15160.0,15160.0,15160.0,103,-7,15160,8,15165,43
2016-07-06 10:23:00,10:23:02,10:23:33,36914,37069,15160.0,37,15165.0,27,15160.0,15165.0,15155.0,15155.0,121,-54,15155,10,15160,38
2016-07-06 10:24:00,10:24:02,10:24:48,37109,37351,15155.0,24,15160.0,33,15155.0,15155.0,15140.0,15150.0,247,-34,15145,38,15155,43
2016-07-06 10:25:00,10:25:00,10:25:57,37361,37549,15145.0,35,15150.0,4,15150.0,15155.0,15150.0,15150.0,111,29,15150,7,15155,32
2016-07-06 10:26:00,10:26:00,10:26:48,37557,37709,15145.0,29,15150.0,5,15150.0,15155.0,15145.0,15155.0,111,30,15150,23,15155,5
2016-07-06 10:27:00,10:27:01,10:27:57,37727,37895,15150.0,15,15155.0,36,15150.0,15170.0,15150.0,15170.0,125,89,15165,19,15170,16
2016-07-06 10:28:00,10:28:01,10:28:59,37901,38270,15165.0,19,15170.0,31,15165.0,15175.0,15160.0,15175.0,435,-79,15170,29,15175,20
2016-07-06 10:29:00,10:29:01,10:29:58,38274,38481,15170.0,29,15175.0,18,15175.0,15185.0,15175.0,15185.0,143,101,15180,27,15185,36
2016-07-06 10:30:00,10:30:03,10:30:53,38492,38736,15180.0,30,15185.0,38,15180.0,15190.0,15175.0,15190.0,241,-25,15185,13,15190,32
2016-07-06 10:31:00,10:31:00,10:31:57,38748,38930,15185.0,19,15190.0,24,15190.0,15190.0,15185.0,15190.0,166,61,15190,1,15195,30
2016-07-06 10:32:00,10:32:01,10:32:37,38942,39009,15190.0,9,15195.0,31,15190.0,15190.0,15185.0,15185.0,26,6,15180,24,15185,8
2016-07-06 10:33:00,10:33:19,10:33:55,39050,39132,15180.0,15,15185.0,20,15180.0,15185.0,15180.0,15180.0,66,-48,15175,43,15180,8
2016-07-06 10:34:00,10:34:55,10:34:56,39180,39206,15175.0,24,15180.0,35,15175.0,15175.0,15175.0,15175.0,41,-39,15175,2,15180,32
2016-07-06 10:35:00,10:35:00,10:35:59,39212,39311,15175.0,3,15180.0,32,15175.0,15180.0,15175.0,15180.0,32,-14,15180,13,15185,25
2016-07-06 10:36:00,10:36:13,10:36:13,39322,39324,15180.0,31,15185.0,19,15185.0,15185.0,15185.0,15185.0,4,4,15180,33,15185,9
2016-07-06 10:37:00,10:37:02,10:37:32,39360,39437,15180.0,30,15185.0,14,15185.0,15185.0,15180.0,15180.0,89,-49,15180,24,15185,32
2016-07-06 10:38:00,10:38:07,10:38:07,39448,39448,15180.0,30,15185.0,13,15180.0,15180.0,15180.0,15180.0,1,-1,15180,29,15185,15
2016-07-06 10:39:00,10:39:20,10:39:48,39510,39624,15180.0,38,15185.0,12,15185.0,15185.0,15175.0,15175.0,117,-13,15175,18,15180,22
2016-07-06 10:40:00,10:40:02,10:40:49,39638,39682,15175.0,8,15180.0,32,15175.0,15175.0,15170.0,15170.0,27,-23,15165,38,15170,29
2016-07-06 10:41:00,10:41:01,10:41:46,39693,39762,15165.0,40,15170.0,28,15170.0,15170.0,15170.0,15170.0,65,-35,15170,16,15175,29
2016-07-06 10:42:00,10:42:01,10:42:52,39773,39823,15170.0,30,15175.0,34,15170.0,15175.0,15165.0,15175.0,47,-9,15175,16,15180,28
2016-07-06 10:43:00,10:43:03,10:43:34,39833,39897,15175.0,10,15180.0,32,15175.0,15175.0,15170.0,15175.0,48,-27,15170,37,15175,5
2016-07-06 10:44:00,10:44:16,10:44:57,39924,40013,15170.0,41,15175.0,4,15175.0,15180.0,15175.0,15180.0,68,44,15180,40,15185,40
2016-07-06 10:45:00,10:45:01,10:45:53,40016,40097,15180.0,40,15185.0,40,15180.0,15185.0,15180.0,15185.0,109,-91,15180,38,15185,19
2016-07-06 10:46:00,10:46:14,10:46:52,40103,40168,15180.0,39,15185.0,10,15185.0,15185.0,15180.0,15185.0,33,13,15185,18,15190,32
2016-07-06 10:47:00,10:47:00,10:47:48,40178,40341,15185.0,23,15190.0,21,15185.0,15190.0,15175.0,15175.0,164,-108,15175,7,15180,36
2016-07-06 10:48:00,10:48:21,10:48:46,40366,40424,15175.0,16,15180.0,33,15180.0,15185.0,15180.0,15185.0,62,54,15185,5,15190,27
2016-07-06 10:49:00,10:49:04,10:49:49,40439,40561,15185.0,23,15190.0,18,15190.0,15190.0,15170.0,15180.0,144,4,15175,39,15180,34
2016-07-06 10:50:00,10:50:06,10:50:58,40570,40653,15175.0,23,15180.0,49,15175.0,15175.0,15165.0,15165.0,70,-64,15160,25,15165,50
2016-07-06 10:51:00,10:51:01,10:51:43,40660,40796,15160.0,22,15165.0,51,15165.0,15165.0,15155.0,15155.0,160,-42,15150,29,15160,39
2016-07-06 10:52:00,10:52:02,10:52:54,40815,40888,15155.0,35,15160.0,28,15160.0,15165.0,15160.0,15165.0,74,54,15160,20,15165,21
2016-07-06 10:53:00,10:53:00,10:53:00,0,0,0.0,0,0.0,0,15165.0,15165.0,15165.0,15165.0,0,0,0,0,0,0
2016-07-06 10:54:00,10:54:07,10:54:41,40925,40990,15160.0,21,15165.0,12,15160.0,15160.0,15155.0,15155.0,66,-34,15155,38,15160,8
2016-07-06 10:55:00,10:55:01,10:55:59,41004,41060,15155.0,40,15160.0,4,15160.0,15160.0,15160.0,15160.0,14,-10,15160,16,15165,34
2016-07-06 10:56:00,10:56:05,10:56:47,41067,41165,15160.0,23,15165.0,26,15165.0,15175.0,15165.0,15175.0,77,57,15175,5,15180,35
2016-07-06 10:57:00,10:57:11,10:57:58,41200,41316,15175.0,15,15180.0,29,15175.0,15180.0,15175.0,15180.0,129,-7,15180,34,15185,15
2016-07-06 10:58:00,10:58:14,10:58:57,41327,41457,15180.0,35,15185.0,25,15185.0,15185.0,15180.0,15185.0,127,-21,15180,33,15190,36
2016-07-06 10:59:00,10:59:02,10:59:59,41461,41523,15185.0,1,15190.0,36,15185.0,15185.0,15180.0,15180.0,18,-15,15180,14,15185,34
2016-07-06 11:00:00,11:00:03,11:00:30,41531,41588,15180.0,10,15185.0,34,15185.0,15185.0,15180.0,15185.0,77,69,15185,17,15190,28
2016-07-06 11:01:00,11:01:13,11:01:56,41630,41688,15185.0,21,15190.0,30,15185.0,15185.0,15185.0,15185.0,26,6,15180,33,15185,1
2016-07-06 11:02:00,11:02:03,11:02:43,41698,41808,15180.0,33,15185.0,11,15185.0,15185.0,15175.0,15180.0,139,-40,15175,33,15180,5
2016-07-06 11:03:00,11:03:32,11:03:55,41850,41882,15175.0,26,15180.0,18,15180.0,15180.0,15180.0,15180.0,23,21,15180,30,15185,29
2016-07-06 11:04:00,11:04:16,11:04:55,41906,41954,15180.0,33,15185.0,13,15185.0,15190.0,15185.0,15185.0,57,1,15185,11,15190,41
2016-07-06 11:05:00,11:05:02,11:05:48,41963,42017,15185.0,28,15190.0,34,15190.0,15190.0,15185.0,15185.0,54,-30,15185,5,15190,30
2016-07-06 11:06:00,11:06:00,11:06:00,0,0,0.0,0,0.0,0,15185.0,15185.0,15185.0,15185.0,0,0,0,0,0,0
2016-07-06 11:07:00,11:07:09,11:07:40,42059,42079,15180.0,38,15185.0,21,15185.0,15185.0,15185.0,15185.0,14,12,15180,40,15185,4
2016-07-06 11:08:00,11:08:01,11:08:44,42101,42155,15180.0,35,15185.0,13,15185.0,15185.0,15185.0,15185.0,31,-7,15180,39,15185,1
2016-07-06 11:09:00,11:09:15,11:09:34,42173,42220,15180.0,39,15185.0,3,15185.0,15190.0,15185.0,15190.0,64,64,15185,41,15190,18
2016-07-06 11:10:00,11:10:08,11:10:37,42240,42310,15185.0,44,15190.0,19,15185.0,15185.0,15180.0,15180.0,70,-53,15180,29,15185,1
2016-07-06 11:11:00,11:11:01,11:11:59,42328,42357,15180.0,22,15185.0,23,15185.0,15185.0,15185.0,15185.0,26,26,15185,10,15190,35
2016-07-06 11:12:00,11:12:34,11:12:42,42374,42418,15185.0,11,15190.0,36,15185.0,15185.0,15180.0,15185.0,51,-31,15185,6,15190,37
2016-07-06 11:13:00,11:13:15,11:13:37,42434,42453,15180.0,29,15185.0,5,15185.0,15190.0,15185.0,15190.0,6,6,15185,15,15190,31
2016-07-06 11:14:00,11:14:59,11:14:59,42485,42486,15185.0,29,15190.0,20,15190.0,15190.0,15190.0,15190.0,2,2,15185,30,15190,17
2016-07-06 11:15:00,11:15:01,11:15:59,42489,42522,15185.0,30,15190.0,17,15190.0,15195.0,15190.0,15195.0,17,17,15195,29,15200,28
2016-07-06 11:16:00,11:16:01,11:16:56,42523,42701,15190.0,31,15195.0,24,15195.0,15200.0,15190.0,15195.0,213,135,15195,39,15200,30
2016-07-06 11:17:00,11:17:00,11:17:30,42709,42757,15195.0,36,15200.0,40,15200.0,15200.0,15190.0,15190.0,73,-1,15190,49,15195,18
2016-07-06 11:18:00,11:18:04,11:18:04,42765,42765,15190.0,49,15195.0,31,15190.0,15190.0,15190.0,15190.0,1,-1,15190,48,15195,33
2016-07-06 11:19:00,11:19:00,11:19:45,42779,42859,15190.0,41,15195.0,35,15190.0,15190.0,15185.0,15190.0,85,-49,15185,36,15190,2
2016-07-06 11:20:00,11:20:06,11:20:41,42873,42917,15185.0,33,15190.0,23,15190.0,15190.0,15185.0,15185.0,26,-20,15185,23,15190,26
2016-07-06 11:21:00,11:21:03,11:21:55,42936,43005,15185.0,21,15190.0,29,15185.0,15190.0,15185.0,15185.0,62,-12,15180,35,15185,9
2016-07-06 11:22:00,11:22:15,11:22:17,43022,43061,15180.0,39,15185.0,8,15185.0,15185.0,15185.0,15185.0,93,-79,15185,19,15190,32
2016-07-06 11:23:00,11:23:35,11:23:39,43074,43088,15185.0,39,15190.0,21,15190.0,15190.0,15185.0,15185.0,30,24,15185,38,15190,19
2016-07-06 11:24:00,11:24:05,11:24:26,43099,43135,15185.0,27,15190.0,37,15185.0,15185.0,15185.0,15185.0,39,-39,15180,38,15185,21
2016-07-06 11:25:00,11:25:00,11:25:25,43148,43172,15180.0,25,15185.0,44,15180.0,15180.0,15180.0,15180.0,7,-7,15180,30,15185,29
2016-07-06 11:26:00,11:26:46,11:26:59,43212,43268,15180.0,34,15185.0,30,15185.0,15185.0,15180.0,15180.0,85,-15,15175,54,15185,38
2016-07-06 11:27:00,11:27:10,11:27:59,43283,43388,15180.0,32,15185.0,55,15180.0,15180.0,15175.0,15175.0,72,-68,15170,24,15175,25
2016-07-06 11:28:00,11:28:09,11:28:52,43404,43501,15170.0,35,15175.0,20,15175.0,15175.0,15175.0,15175.0,72,-6,15170,29,15175,10
2016-07-06 11:29:00,11:29:35,11:29:59,43522,43566,15170.0,34,15175.0,7,15175.0,15175.0,15175.0,15175.0,32,6,15175,2,15180,39
2016-07-06 11:30:00,11:30:00,11:30:55,43567,43766,15170.0,30,15175.0,8,15175.0,15175.0,15170.0,15170.0,183,-125,15170,26,15175,34
2016-07-06 11:31:00,11:31:00,11:31:55,43772,43935,15170.0,27,15175.0,36,15175.0,15180.0,15175.0,15175.0,139,39,15170,47,15175,6
2016-07-06 11:32:00,11:32:03,11:32:59,43941,44107,15170.0,45,15175.0,17,15175.0,15190.0,15175.0,15190.0,153,58,15185,38,15195,55
2016-07-06 11:33:00,11:33:00,11:33:59,44112,44255,15185.0,16,15190.0,42,15190.0,15210.0,15185.0,15210.0,112,77,15205,14,15210,35
2016-07-06 11:34:00,11:34:01,11:34:59,44261,44484,15205.0,16,15210.0,35,15205.0,15210.0,15205.0,15210.0,189,-12,15205,42,15210,4
2016-07-06 11:35:00,11:35:01,11:35:24,44488,44565,15205.0,42,15210.0,3,15210.0,15215.0,15210.0,15210.0,64,2,15205,35,15210,12
2016-07-06 11:36:00,11:36:24,11:36:58,44614,44912,15205.0,39,15210.0,30,15210.0,15235.0,15210.0,15235.0,445,149,15230,18,15235,29
2016-07-06 11:37:00,11:37:00,11:37:58,44920,45286,15230.0,32,15235.0,30,15230.0,15240.0,15225.0,15235.0,420,-29,15230,30,15235,14
2016-07-06 11:38:00,11:38:00,11:38:54,45291,45589,15230.0,30,15235.0,23,15230.0,15245.0,15230.0,15235.0,303,-9,15235,2,15240,42
2016-07-06 11:39:00,11:39:08,11:39:59,45603,45819,15235.0,19,15240.0,47,15235.0,15240.0,15220.0,15225.0,302,-95,15225,14,15230,42
2016-07-06 11:40:00,11:40:02,11:40:59,45826,46010,15225.0,24,15230.0,41,15225.0,15235.0,15225.0,15230.0,176,103,15225,59,15230,2
2016-07-06 11:41:00,11:41:00,11:41:58,46013,46192,15225.0,59,15230.0,2,15230.0,15235.0,15230.0,15230.0,156,17,15225,50,15235,50
2016-07-06 11:42:00,11:42:17,11:42:50,46212,46338,15230.0,19,15235.0,42,15230.0,15240.0,15230.0,15235.0,113,19,15230,47,15235,19
2016-07-06 11:43:00,11:43:24,11:43:53,46383,46443,15230.0,45,15235.0,12,15235.0,15240.0,15235.0,15240.0,33,33,15235,60,15240,11
2016-07-06 11:44:00,11:44:02,11:44:51,46456,46691,15235.0,62,15240.0,6,15240.0,15240.0,15225.0,15225.0,249,-95,15225,39,15230,38
2016-07-06 11:45:00,11:45:03,11:45:55,46710,46854,15225.0,32,15230.0,46,15225.0,15230.0,15220.0,15220.0,164,50,15215,45,15220,35
2016-07-06 11:46:00,11:46:12,11:46:52,46871,47005,15215.0,51,15220.0,51,15220.0,15225.0,15220.0,15220.0,162,38,15220,26,15225,51
2016-07-06 11:47:00,11:47:21,11:47:24,47023,47046,15220.0,19,15225.0,54,15220.0,15220.0,15220.0,15220.0,35,-29,15215,43,15220,51
2016-07-06 11:48:00,11:48:00,11:48:40,47073,47213,15215.0,43,15220.0,55,15215.0,15215.0,15210.0,15215.0,173,51,15210,49,15215,7
2016-07-06 11:49:00,11:49:00,11:49:00,0,0,0.0,0,0.0,0,15215.0,15215.0,15215.0,15215.0,0,0,0,0,0,0
2016-07-06 11:50:00,11:50:36,11:50:36,47310,47311,15210.0,50,15215.0,85,15215.0,15215.0,15215.0,15215.0,6,6,15210,48,15215,79
2016-07-06 11:51:00,11:51:10,11:51:41,47321,47445,15210.0,53,15215.0,73,15215.0,15215.0,15205.0,15205.0,154,-64,15205,26,15210,44
2016-07-06 11:52:00,11:52:02,11:52:56,47468,47595,15205.0,25,15210.0,56,15205.0,15205.0,15195.0,15195.0,168,-90,15195,29,15200,39
2016-07-06 11:53:00,11:53:12,11:53:52,47608,47698,15195.0,39,15200.0,26,15200.0,15200.0,15200.0,15200.0,59,9,15195,46,15205,43
2016-07-06 11:54:00,11:54:03,11:54:15,47708,47756,15200.0,10,15205.0,43,15200.0,15200.0,15200.0,15200.0,92,72,15200,6,15205,37
2016-07-06 11:55:00,11:55:03,11:55:58,47794,47958,15200.0,36,15205.0,19,15200.0,15220.0,15200.0,15220.0,124,30,15215,26,15220,30
2016-07-06 11:56:00,11:56:05,11:56:50,47965,48105,15215.0,33,15220.0,29,15220.0,15240.0,15220.0,15240.0,76,40,15235,34,15240,41
2016-07-06 11:57:00,11:57:03,11:57:58,48117,48299,15235.0,35,15240.0,41,15235.0,15240.0,15235.0,15240.0,169,-25,15235,28,15240,21
2016-07-06 11:58:00,11:58:21,11:58:58,48313,48425,15235.0,40,15240.0,13,15240.0,15250.0,15240.0,15245.0,65,33,15240,32,15245,20
2016-07-06 11:59:00,11:59:00,11:59:57,48431,48759,15240.0,36,15245.0,17,15245.0,15275.0,15245.0,15260.0,386,257,15255,40,15260,16
2016-07-06 12:00:00,12:00:01,12:00:57,48769,49002,15255.0,18,15260.0,40,15255.0,15260.0,15245.0,15255.0,236,-12,15250,25,15255,30
2016-07-06 12:01:00,12:01:03,12:01:53,49010,49183,15250.0,17,15255.0,30,15255.0,15255.0,15245.0,15250.0,173,25,15245,34,15250,16
2016-07-06 12:02:00,12:02:02,12:02:28,49197,49299,15245.0,40,15250.0,5,15250.0,15250.0,15245.0,15250.0,115,47,15245,21,15250,19
2016-07-06 12:03:00,12:03:28,12:03:49,49342,49408,15245.0,37,15250.0,15,15250.0,15255.0,15250.0,15250.0,51,15,15250,28,15255,33
2016-07-06 12:04:00,12:04:07,12:04:53,49436,49545,15250.0,44,15255.0,22,15255.0,15255.0,15245.0,15250.0,111,-8,15245,9,15250,42
2016-07-06 12:05:00,12:05:13,12:05:59,49562,49692,15245.0,27,15250.0,52,15245.0,15250.0,15245.0,15245.0,104,-19,15245,3,15250,37
2016-07-06 12:06:00,12:06:02,12:06:56,49697,49837,15245.0,7,15250.0,37,15250.0,15250.0,15240.0,15245.0,144,-44,15240,33,15245,20
2016-07-06 12:07:00,12:07:09,12:07:58,49858,50063,15240.0,12,15245.0,38,15240.0,15245.0,15235.0,15245.0,245,-101,15245,12,15250,37
2016-07-06 12:08:00,12:08:03,12:08:54,50067,50219,15245.0,5,15250.0,37,15245.0,15245.0,15240.0,15245.0,120,36,15240,36,15245,7
2016-07-06 12:09:00,12:09:00,12:09:00,50226,50226,15240.0,35,15245.0,17,15245.0,15245.0,15245.0,15245.0,1,1,15240,36,15245,16
2016-07-06 12:10:00,12:10:02,12:10:59,50254,50361,15240.0,13,15245.0,35,15240.0,15240.0,15240.0,15240.0,99,-63,15240,30,15245,20
2016-07-06 12:11:00,12:11:09,12:11:53,50376,50440,15240.0,7,15245.0,46,15240.0,15240.0,15240.0,15240.0,26,0,15235,29,15240,36
2016-07-06 12:12:00,12:12:05,12:12:51,50446,50471,15235.0,26,15240.0,38,15235.0,15235.0,15235.0,15235.0,4,-4,15235,23,15235,19
2016-07-06 12:13:00,12:13:02,12:13:58,50473,50635,15235.0,23,15240.0,39,15235.0,15235.0,15220.0,15225.0,134,-60,15225,9,15230,60
2016-07-06 12:14:00,12:14:00,12:14:55,50642,50762,15225.0,10,15230.0,63,15225.0,15225.0,15225.0,15225.0,82,-14,15220,35,15225,12
2016-07-06 12:15:00,12:15:11,12:15:51,50777,50922,15220.0,39,15225.0,24,15225.0,15240.0,15225.0,15240.0,150,128,15235,30,15240,28
2016-07-06 12:16:00,12:16:01,12:16:59,50937,51055,15235.0,30,15240.0,18,15240.0,15240.0,15235.0,15240.0,116,-17,15240,14,15245,34
2016-07-06 12:17:00,12:17:09,12:17:38,51070,51126,15240.0,15,15245.0,30,15240.0,15240.0,15240.0,15240.0,39,19,15235,49,15240,1
2016-07-06 12:18:00,12:18:51,12:18:57,51182,51209,15235.0,30,15240.0,30,15235.0,15235.0,15235.0,15235.0,35,-13,15235,6,15240,37
2016-07-06 12:19:00,12:19:17,12:19:59,51224,51367,15235.0,9,15240.0,35,15235.0,15235.0,15215.0,15215.0,141,-101,15215,47,15220,34
2016-07-06 12:20:00,12:20:07,12:20:56,51375,51487,15215.0,33,15220.0,38,15215.0,15220.0,15215.0,15220.0,113,9,15215,39,15220,25
2016-07-06 12:21:00,12:21:49,12:21:56,51531,51557,15215.0,22,15220.0,41,15215.0,15215.0,15210.0,15210.0,9,-9,15210,25,15215,33
2016-07-06 12:22:00,12:22:01,12:22:57,51565,51630,15210.0,13,15215.0,35,15210.0,15215.0,15210.0,15210.0,18,-16,15210,30,15215,27
2016-07-06 12:23:00,12:23:02,12:23:35,51639,51690,15210.0,38,15215.0,23,15215.0,15220.0,15215.0,15215.0,34,-4,15210,39,15215,16
2016-07-06 12:24:00,12:24:00,12:24:58,51728,51876,15210.0,34,15215.0,22,15210.0,15215.0,15210.0,15215.0,88,-46,15210,37,15215,17
2016-07-06 12:25:00,12:25:01,12:25:41,51882,51996,15210.0,42,15215.0,16,15215.0,15220.0,15215.0,15215.0,74,33,15215,12,15220,35
2016-07-06 12:26:00,12:26:40,12:26:46,52038,52082,15215.0,28,15220.0,35,15220.0,15225.0,15220.0,15220.0,83,-25,15215,31,15220,48
2016-07-06 12:27:00,12:27:04,12:27:58,52092,52254,15215.0,32,15220.0,57,15215.0,15215.0,15210.0,15210.0,224,-165,15210,24,15210,14
2016-07-06 12:28:00,12:28:00,12:28:59,52257,52340,15210.0,19,15215.0,37,15210.0,15215.0,15210.0,15215.0,61,-29,15210,14,15215,10
2016-07-06 12:29:00,12:29:00,12:29:56,52341,52427,15210.0,28,15215.0,12,15215.0,15215.0,15210.0,15215.0,66,-50,15210,39,15215,10
2016-07-06 12:30:00,12:30:18,12:30:30,52443,52461,15210.0,27,15215.0,11,15215.0,15215.0,15215.0,15215.0,26,-10,15210,28,15215,16
2016-07-06 12:31:00,12:31:04,12:31:37,52482,52518,15210.0,28,15215.0,22,15215.0,15215.0,15210.0,15210.0,18,-6,15205,31,15210,30
2016-07-06 12:32:00,12:32:01,12:32:58,52535,52640,15205.0,25,15210.0,49,15205.0,15210.0,15205.0,15210.0,116,-28,15210,11,15210,7
2016-07-06 12:33:00,12:33:11,12:33:29,52647,52696,15205.0,43,15210.0,11,15210.0,15210.0,15210.0,15210.0,37,5,15205,47,15215,51
2016-07-06 12:34:00,12:34:07,12:34:44,52727,52800,15205.0,31,15210.0,31,15205.0,15205.0,15205.0,15205.0,35,4,15200,38,15205,22
2016-07-06 12:35:00,12:35:10,12:35:37,52817,52869,15200.0,38,15205.0,6,15205.0,15205.0,15205.0,15205.0,48,16,15205,7,15210,36
2016-07-06 12:36:00,12:36:31,12:36:53,52919,52951,15205.0,30,15210.0,37,15205.0,15210.0,15205.0,15210.0,37,17,15210,31,15215,37
2016-07-06 12:37:00,12:37:01,12:37:59,52958,53108,15210.0,34,15215.0,36,15215.0,15220.0,15215.0,15220.0,169,65,15215,43,15220,2
2016-07-06 12:38:00,12:38:01,12:38:15,53113,53145,15215.0,40,15225.0,41,15220.0,15220.0,15220.0,15220.0,17,-5,15220,5,15225,37
2016-07-06 12:39:00,12:39:09,12:39:52,53187,53255,15220.0,24,15225.0,39,15225.0,15225.0,15225.0,15225.0,54,34,15225,5,15230,49
2016-07-06 12:40:00,12:40:18,12:40:18,53278,53279,15225.0,14,15230.0,41,15225.0,15225.0,15225.0,15225.0,2,-2,15225,12,15230,42
2016-07-06 12:41:00,12:41:01,12:41:48,53298,53448,15225.0,12,15230.0,42,15225.0,15225.0,15220.0,15220.0,164,-88,15215,42,15225,46
2016-07-06 12:42:00,12:42:17,12:42:25,53472,53481,15215.0,19,15220.0,36,15220.0,15220.0,15220.0,15220.0,3,3,15215,16,15220,38
2016-07-06 12:43:00,12:43:13,12:43:13,53507,53507,15215.0,18,15220.0,36,15220.0,15220.0,15220.0,15220.0,1,1,15215,14,15220,33
2016-07-06 12:44:00,12:44:39,12:44:44,53541,53570,15215.0,31,15220.0,33,15220.0,15220.0,15220.0,15220.0,48,48,15220,13,15225,36
2016-07-06 12:45:00,12:45:09,12:45:59,53595,53692,15220.0,42,15225.0,8,15225.0,15225.0,15225.0,15225.0,71,29,15225,5,15230,39
2016-07-06 12:46:00,12:46:10,12:46:32,53704,53740,15225.0,6,15230.0,36,15225.0,15230.0,15225.0,15230.0,23,-11,15225,6,15230,33
2016-07-06 12:47:00,12:47:24,12:47:59,53766,53842,15225.0,33,15230.0,26,15230.0,15230.0,15230.0,15230.0,56,23,15225,42,15235,42
2016-07-06 12:48:00,12:48:01,12:48:18,53848,53878,15225.0,40,15230.0,6,15230.0,15230.0,15225.0,15225.0,4,0,15225,23,15230,28
2016-07-06 12:49:00,12:49:08,12:49:58,53920,53989,15225.0,28,15230.0,22,15225.0,15225.0,15220.0,15220.0,26,-18,15220,29,15225,28
2016-07-06 12:50:00,12:50:13,12:50:56,54002,54142,15220.0,33,15225.0,23,15225.0,15230.0,15225.0,15225.0,170,82,15220,32,15225,2
2016-07-06 12:51:00,12:51:10,12:51:10,54149,54150,15220.0,23,15225.0,15,15225.0,15225.0,15225.0,15225.0,2,2,15220,21,15225,13
2016-07-06 12:52:00,12:52:33,12:52:52,54224,54303,15220.0,41,15225.0,42,15225.0,15230.0,15225.0,15230.0,140,22,15225,40,15235,52
2016-07-06 12:53:00,12:53:57,12:53:59,54360,54373,15230.0,30,15235.0,4,15235.0,15235.0,15235.0,15235.0,18,18,15235,12,15240,36
2016-07-06 12:54:00,12:54:32,12:54:44,54402,54437,15235.0,25,15240.0,37,15235.0,15240.0,15235.0,15240.0,33,-19,15235,6,15240,41
2016-07-06 12:55:00,12:55:12,12:55:37,54474,54544,15235.0,34,15240.0,17,15240.0,15250.0,15240.0,15250.0,107,41,15245,31,15250,27
2016-07-06 12:56:00,12:56:00,12:56:43,54553,54694,15245.0,35,15250.0,34,15250.0,15255.0,15245.0,15250.0,139,31,15245,22,15250,33
2016-07-06 12:57:00,12:57:43,12:57:46,54750,54800,15245.0,38,15250.0,28,15245.0,15245.0,15245.0,15245.0,68,-65,15240,26,15245,32
2016-07-06 12:58:00,12:58:12,12:58:53,54817,54938,15240.0,39,15245.0,30,15245.0,15255.0,15245.0,15255.0,131,131,15255,22,15260,25
2016-07-06 12:59:00,12:59:06,12:59:41,54967,55251,15255.0,36,15260.0,9,15260.0,15275.0,15255.0,15265.0,287,127,15260,33,15265,2
2016-07-06 13:00:00,13:00:00,13:00:56,55278,55514,15265.0,18,15270.0,55,15270.0,15270.0,15255.0,15260.0,202,-38,15255,25,15260,34
2016-07-06 13:01:00,13:01:03,13:01:44,55527,55623,15255.0,38,15260.0,35,15260.0,15260.0,15255.0,15255.0,100,-26,15250,21,15255,31
2016-07-06 13:02:00,13:02:09,13:02:59,55653,55827,15250.0,48,15255.0,14,15255.0,15260.0,15255.0,15260.0,181,13,15255,38,15260,23
2016-07-06 13:03:00,13:03:00,13:03:54,55828,55949,15255.0,56,15260.0,1,15260.0,15265.0,15260.0,15265.0,65,58,15260,41,15270,41
2016-07-06 13:04:00,13:04:35,13:04:59,55992,56095,15265.0,21,15270.0,35,15265.0,15265.0,15265.0,15265.0,96,-13,15260,38,15265,3
2016-07-06 13:05:00,13:05:01,13:05:27,56100,56155,15260.0,40,15265.0,7,15265.0,15270.0,15265.0,15270.0,24,24,15265,89,15270,3
2016-07-06 13:06:00,13:06:05,13:06:55,56194,56231,15265.0,93,15270.0,26,15270.0,15270.0,15265.0,15265.0,26,8,15265,81,15265,47
2016-07-06 13:07:00,13:07:03,13:07:53,56236,56347,15265.0,76,15270.0,58,15265.0,15265.0,15255.0,15260.0,135,-129,15255,39,15260,20
2016-07-06 13:08:00,13:08:16,13:08:56,56375,56531,15255.0,42,15260.0,14,15255.0,15260.0,15250.0,15255.0,170,-41,15250,35,15255,16
2016-07-06 13:09:00,13:09:43,13:09:51,56576,56644,15250.0,39,15255.0,18,15255.0,15260.0,15255.0,15255.0,95,51,15250,42,15255,9
2016-07-06 13:10:00,13:10:40,13:10:53,56676,56745,15250.0,28,15255.0,36,15255.0,15255.0,15245.0,15250.0,77,-19,15245,42,15255,44
2016-07-06 13:11:00,13:11:00,13:11:43,56754,56859,15250.0,13,15255.0,44,15250.0,15255.0,15250.0,15250.0,63,19,15250,43,15255,40
2016-07-06 13:12:00,13:12:02,13:12:25,56874,56945,15250.0,35,15255.0,37,15250.0,15260.0,15250.0,15260.0,90,60,15260,30,15265,26
2016-07-06 13:13:00,13:13:00,13:13:53,57005,57109,15260.0,48,15265.0,22,15265.0,15265.0,15260.0,15265.0,81,-23,15260,31,15265,15
2016-07-06 13:14:00,13:14:05,13:14:55,57127,57258,15260.0,20,15265.0,39,15260.0,15260.0,15250.0,15250.0,107,-9,15250,40,15255,22
2016-07-06 13:15:00,13:15:00,13:15:52,57265,57390,15250.0,40,15255.0,15,15255.0,15255.0,15245.0,15245.0,114,-32,15245,48,15250,19
2016-07-06 13:16:00,13:16:20,13:16:57,57433,57480,15245.0,41,15250.0,22,15245.0,15255.0,15245.0,15255.0,19,13,15250,19,15255,58
2016-07-06 13:17:00,13:17:02,13:17:49,57488,57633,15250.0,21,15255.0,56,15250.0,15255.0,15245.0,15255.0,138,50,15255,26,15260,32
2016-07-06 13:18:00,13:18:01,13:18:45,57649,57715,15255.0,23,15260.0,45,15255.0,15260.0,15255.0,15260.0,28,8,15255,35,15260,29
2016-07-06 13:19:00,13:19:35,13:19:58,57769,57841,15255.0,38,15260.0,30,15260.0,15260.0,15255.0,15255.0,60,2,15250,37,15255,9
2016-07-06 13:20:00,13:20:00,13:20:44,57846,57907,15250.0,42,15255.0,10,15255.0,15260.0,15255.0,15260.0,29,29,15260,29,15265,38
2016-07-06 13:21:00,13:21:04,13:21:49,57934,58061,15260.0,34,15265.0,27,15265.0,15270.0,15265.0,15265.0,87,3,15260,19,15265,34
2016-07-06 13:22:00,13:22:01,13:22:58,58076,58338,15260.0,18,15265.0,40,15260.0,15260.0,15230.0,15230.0,231,-81,15230,15,15235,31
2016-07-06 13:23:00,13:23:03,13:23:52,58346,58533,15230.0,15,15235.0,33,15230.0,15235.0,15230.0,15235.0,174,55,15230,47,15235,6
2016-07-06 13:24:00,13:24:10,13:24:55,58570,58689,15230.0,23,15235.0,75,15230.0,15235.0,15225.0,15235.0,131,-7,15230,32,15235,75
2016-07-06 13:25:00,13:25:01,13:25:59,58694,58887,15230.0,33,15235.0,75,15235.0,15240.0,15235.0,15240.0,233,61,15235,35,15245,38
2016-07-06 13:26:00,13:26:00,13:26:58,58890,59034,15235.0,39,15240.0,23,15240.0,15245.0,15240.0,15245.0,110,-10,15240,44,15245,6
2016-07-06 13:27:00,13:27:00,13:27:00,0,0,0.0,0,0.0,0,15245.0,15245.0,15245.0,15245.0,0,0,0,0,0,0
2016-07-06 13:28:00,13:28:01,13:28:53,59086,59162,15240.0,19,15245.0,48,15245.0,15250.0,15245.0,15250.0,94,22,15245,45,15250,39
2016-07-06 13:29:00,13:29:27,13:29:58,59182,59378,15245.0,45,15250.0,20,15250.0,15260.0,15250.0,15260.0,195,96,15255,11,15260,30
2016-07-06 13:30:00,13:30:02,13:30:57,59388,59574,15255.0,13,15260.0,37,15260.0,15270.0,15255.0,15270.0,181,147,15270,42,15275,24
2016-07-06 13:31:00,13:31:00,13:31:44,59584,59756,15270.0,33,15275.0,30,15270.0,15275.0,15270.0,15275.0,185,-109,15270,40,15275,19
2016-07-06 13:32:00,13:32:03,13:32:58,59780,60110,15270.0,41,15275.0,11,15270.0,15285.0,15270.0,15285.0,420,146,15280,25,15285,13
2016-07-06 13:33:00,13:33:06,13:33:59,60129,60386,15280.0,16,15285.0,61,15280.0,15280.0,15270.0,15275.0,301,-111,15270,33,15275,25
2016-07-06 13:34:00,13:34:00,13:34:59,60389,60778,15270.0,33,15275.0,25,15275.0,15290.0,15270.0,15280.0,440,42,15280,10,15285,39
2016-07-06 13:35:00,13:35:00,13:35:51,60781,61127,15280.0,10,15285.0,39,15280.0,15285.0,15275.0,15280.0,371,-112,15280,26,15285,39
2016-07-06 13:36:00,13:36:00,13:36:53,61139,61261,15280.0,10,15285.0,36,15280.0,15280.0,15270.0,15275.0,60,-30,15270,33,15275,62
2016-07-06 13:37:00,13:37:03,13:37:47,61273,61435,15270.0,24,15275.0,62,15275.0,15275.0,15270.0,15275.0,256,37,15275,11,15280,42
2016-07-06 13:38:00,13:38:02,13:38:58,61456,61644,15275.0,16,15280.0,41,15275.0,15285.0,15275.0,15280.0,187,51,15280,58,15285,33
2016-07-06 13:39:00,13:39:04,13:39:57,61651,62063,15280.0,62,15285.0,32,15285.0,15300.0,15275.0,15300.0,613,50,15295,60,15300,30
2016-07-06 13:40:00,13:40:04,13:40:51,62080,62421,15295.0,98,15300.0,35,15300.0,15310.0,15300.0,15305.0,452,259,15305,15,15310,45
2016-07-06 13:41:00,13:41:00,13:41:59,62441,62831,15305.0,39,15310.0,37,15310.0,15315.0,15295.0,15300.0,450,-144,15300,9,15305,49
2016-07-06 13:42:00,13:42:06,13:42:56,62844,63130,15300.0,40,15305.0,47,15300.0,15305.0,15295.0,15305.0,321,12,15300,55,15310,49
2016-07-06 13:43:00,13:43:04,13:43:59,63142,63504,15300.0,38,15305.0,25,15300.0,15315.0,15295.0,15310.0,452,-96,15310,33,15315,18
2016-07-06 13:44:00,13:44:04,13:44:52,63514,63708,15310.0,35,15315.0,18,15315.0,15315.0,15305.0,15310.0,165,-15,15305,62,15310,14
2016-07-06 13:45:00,13:45:04,13:45:52,63729,63878,15305.0,54,15310.0,18,15310.0,15320.0,15310.0,15315.0,107,24,15310,40,15315,29
2016-07-06 13:46:00,13:46:01,13:46:51,63892,64264,15310.0,31,15315.0,38,15315.0,15320.0,15310.0,15315.0,541,-1,15310,13,15315,43
2016-07-06 13:47:00,13:47:05,13:47:55,64281,64578,15310.0,34,15315.0,45,15310.0,15310.0,15300.0,15305.0,367,-100,15300,32,15305,36
2016-07-06 13:48:00,13:48:01,13:48:59,64593,64968,15300.0,59,15305.0,35,15300.0,15315.0,15300.0,15315.0,502,-5,15310,48,15315,7
2016-07-06 13:49:00,13:49:07,13:49:56,64982,65162,15310.0,43,15315.0,34,15310.0,15315.0,15305.0,15310.0,224,18,15310,72,15315,51
2016-07-06 13:50:00,13:50:06,13:50:58,65172,65557,15310.0,74,15315.0,45,15315.0,15315.0,15305.0,15305.0,634,31,15300,64,15305,17
2016-07-06 13:51:00,13:51:07,13:51:59,65569,65843,15300.0,68,15305.0,13,15305.0,15330.0,15305.0,15330.0,411,169,15325,12,15330,55
2016-07-06 13:52:00,13:52:00,13:52:53,65846,66174,15325.0,12,15330.0,55,15330.0,15335.0,15325.0,15335.0,491,291,15330,36,15335,80
2016-07-06 13:53:00,13:53:01,13:53:57,66188,66476,15330.0,40,15335.0,106,15330.0,15335.0,15325.0,15325.0,383,-271,15320,93,15325,20
2016-07-06 13:54:00,13:54:00,13:54:59,66480,66713,15320.0,91,15325.0,23,15325.0,15325.0,15315.0,15315.0,272,12,15310,78,15320,49
2016-07-06 13:55:00,13:55:00,13:55:55,66717,67027,15315.0,4,15320.0,49,15320.0,15325.0,15310.0,15325.0,403,129,15325,19,15330,50
2016-07-06 13:56:00,13:56:00,13:56:54,67038,67188,15325.0,19,15330.0,49,15325.0,15330.0,15325.0,15330.0,156,-144,15325,37,15330,74
2016-07-06 13:57:00,13:57:00,13:57:58,67194,67500,15325.0,38,15330.0,73,15330.0,15340.0,15325.0,15335.0,471,215,15330,78,15340,98
2016-07-06 13:58:00,13:58:00,13:58:59,67508,67855,15330.0,78,15335.0,40,15335.0,15350.0,15335.0,15340.0,447,63,15340,130,15345,63
2016-07-06 13:59:00,13:59:00,13:59:59,67858,68395,15340.0,130,15345.0,63,15340.0,15350.0,15340.0,15345.0,1114,173,15340,46,15345,4
2016-07-06 14:00:00,14:00:00,14:00:59,68396,69142,15340.0,67,15345.0,26,15345.0,15355.0,15335.0,15340.0,1607,-311,15335,111,15340,47
2016-07-06 14:01:00,14:01:01,14:01:58,69146,69628,15335.0,111,15340.0,44,15340.0,15345.0,15325.0,15325.0,890,-230,15325,66,15330,143
2016-07-06 14:02:00,14:02:01,14:02:56,69633,69931,15325.0,125,15330.0,143,15325.0,15345.0,15325.0,15345.0,534,164,15340,134,15345,94
2016-07-06 14:03:00,14:03:01,14:03:58,69940,70292,15340.0,138,15345.0,94,15345.0,15360.0,15340.0,15340.0,515,-37,15340,82,15345,103
2016-07-06 14:04:00,14:04:01,14:04:59,70299,70628,15340.0,97,15345.0,104,15345.0,15345.0,15310.0,15310.0,536,-218,15310,45,15315,96
2016-07-06 14:05:00,14:05:00,14:05:56,70633,70950,15310.0,37,15315.0,117,15315.0,15320.0,15310.0,15320.0,483,-9,15315,33,15320,74
2016-07-06 14:06:00,14:06:00,14:06:50,70957,71144,15315.0,33,15320.0,96,15320.0,15320.0,15305.0,15315.0,217,-48,15310,86,15315,41
2016-07-06 14:07:00,14:07:03,14:07:59,71167,71486,15310.0,93,15315.0,71,15310.0,15310.0,15290.0,15295.0,550,-404,15290,30,15295,80
2016-07-06 14:08:00,14:08:01,14:08:57,71493,71868,15290.0,39,15295.0,79,15295.0,15295.0,15275.0,15285.0,488,-109,15280,82,15285,58
2016-07-06 14:09:00,14:09:01,14:09:59,71879,72111,15280.0,91,15285.0,60,15285.0,15285.0,15275.0,15280.0,306,-79,15280,17,15285,95
