,ST,ET,sidx,eidx,bB,bBS,bA,bAS,O,H,L,C,V,OF,eB,eBS,eA,eAS
2016-10-25 08:00:00,08:00:00,08:00:57,2101,2593,17315.0,27,17320.0,67,17315.0,17320.0,17300.0,17315.0,820,-203,17310,68,17315,7
2016-10-25 08:01:00,08:01:00,08:01:59,2600,2860,17310.0,67,17315.0,10,17315.0,17330.0,17315.0,17330.0,310,214,17325,56,17330,51
2016-10-25 08:02:00,08:02:00,08:02:56,2863,3012,17325.0,56,17330.0,51,17325.0,17335.0,17325.0,17325.0,195,-61,17325,39,17330,81
2016-10-25 08:03:00,08:03:04,08:03:50,3024,3385,17325.0,41,17330.0,84,17330.0,17355.0,17330.0,17345.0,512,386,17340,64,17345,20
2016-10-25 08:04:00,08:04:01,08:04:55,3396,3578,17340.0,52,17345.0,45,17345.0,17350.0,17340.0,17340.0,190,30,17340,70,17345,59
2016-10-25 08:05:00,08:05:00,08:05:57,3582,3999,17340.0,59,17345.0,59,17340.0,17360.0,17335.0,17335.0,766,56,17335,10,17340,75
2016-10-25 08:06:00,08:06:03,08:06:49,4009,4215,17335.0,15,17340.0,83,17340.0,17345.0,17330.0,17335.0,313,21,17335,41,17340,49
2016-10-25 08:07:00,08:07:00,08:07:56,4236,4557,17335.0,33,17340.0,64,17340.0,17340.0,17330.0,17330.0,459,147,17325,56,17330,22
2016-10-25 08:08:00,08:08:00,08:08:56,4567,5126,17325.0,48,17330.0,49,17330.0,17345.0,17330.0,17340.0,924,20,17335,39,17340,75
2016-10-25 08:09:00,08:09:20,08:09:59,5150,5247,17335.0,68,17340.0,40,17340.0,17340.0,17335.0,17340.0,96,0,17335,65,17340,50
2016-10-25 08:10:00,08:10:13,08:10:55,5257,5324,17335.0,63,17340.0,69,17335.0,17340.0,17335.0,17335.0,49,-31,17335,39,17340,66
2016-10-25 08:11:00,08:11:01,08:11:55,5332,5398,17335.0,47,17340.0,50,17335.0,17340.0,17335.0,17335.0,41,-25,17335,43,17340,40
2016-10-25 08:12:00,08:12:00,08:12:35,5403,5510,17335.0,43,17340.0,45,17340.0,17345.0,17335.0,17345.0,108,48,17340,39,17345,59
2016-10-25 08:13:00,08:13:18,08:13:56,5543,5648,17340.0,36,17345.0,62,17340.0,17350.0,17340.0,17350.0,119,33,17345,22,17350,61
2016-10-25 08:14:00,08:14:08,08:14:59,5658,5777,17345.0,17,17350.0,69,17345.0,17345.0,17345.0,17345.0,102,-20,17340,61,17350,60
2016-10-25 08:15:00,08:15:00,08:15:59,5780,5951,17340.0,61,17350.0,60,17345.0,17355.0,17345.0,17355.0,121,72,17350,88,17355,22
2016-10-25 08:16:00,08:16:00,08:16:32,5953,6253,17350.0,84,17355.0,22,17355.0,17360.0,17345.0,17355.0,454,110,17350,44,17355,48
2016-10-25 08:17:00,08:17:03,08:17:37,6293,6356,17350.0,43,17355.0,48,17355.0,17355.0,17355.0,17355.0,35,9,17350,48,17355,25
2016-10-25 08:18:00,08:18:27,08:18:53,6403,6548,17350.0,40,17355.0,58,17350.0,17355.0,17345.0,17355.0,131,-44,17350,45,17355,18
2016-10-25 08:19:00,08:19:00,08:19:47,6556,6641,17350.0,73,17355.0,4,17355.0,17360.0,17355.0,17360.0,61,-25,17355,31,17360,51
2016-10-25 08:20:00,08:20:00,08:20:55,6649,6807,17355.0,36,17360.0,53,17360.0,17365.0,17360.0,17360.0,150,44,17360,14,17365,78
2016-10-25 08:21:00,08:21:03,08:21:37,6817,6925,17360.0,21,17365.0,83,17360.0,17365.0,17360.0,17360.0,92,-48,17360,17,17365,53
2016-10-25 08:22:00,08:22:00,08:22:48,6951,7132,17360.0,27,17365.0,74,17360.0,17365.0,17360.0,17365.0,203,41,17360,51,17365,51
2016-10-25 08:23:00,08:23:21,08:23:22,7166,7182,17360.0,40,17365.0,46,17360.0,17360.0,17360.0,17360.0,31,-31,17360,13,17365,50
2016-10-25 08:24:00,08:24:01,08:24:56,7205,7426,17360.0,30,17365.0,47,17365.0,17370.0,17360.0,17365.0,271,-35,17360,46,17365,101
2016-10-25 08:25:00,08:25:05,08:25:37,7439,7474,17360.0,55,17365.0,98,17360.0,17365.0,17360.0,17360.0,29,-27,17360,76,17365,124
2016-10-25 08:26:00,08:26:29,08:26:29,7494,7494,17360.0,73,17365.0,61,17360.0,17360.0,17360.0,17360.0,1,-1,17360,72,17365,60
2016-10-25 08:27:00,08:27:07,08:27:58,7523,7703,17360.0,80,17365.0,94,17360.0,17370.0,17360.0,17365.0,231,33,17360,75,17365,26
2016-10-25 08:28:00,08:28:03,08:28:52,7708,7816,17360.0,69,17365.0,25,17365.0,17370.0,17360.0,17365.0,113,26,17360,37,17365,60
2016-10-25 08:29:00,08:29:00,08:29:54,7831,7975,17360.0,44,17365.0,65,17360.0,17365.0,17355.0,17365.0,141,-5,17360,38,17365,46
2016-10-25 08:30:00,08:30:00,08:30:57,7986,8319,17360.0,56,17365.0,34,17365.0,17375.0,17365.0,17375.0,558,346,17370,43,17375,34
2016-10-25 08:31:00,08:31:07,08:31:53,8333,8476,17370.0,53,17375.0,50,17375.0,17380.0,17370.0,17375.0,191,-16,17370,65,17375,34
2016-10-25 08:32:00,08:32:01,08:32:58,8485,8706,17370.0,70,17375.0,34,17375.0,17375.0,17365.0,17370.0,232,-18,17365,43,17370,45
2016-10-25 08:33:00,08:33:03,08:33:53,8717,8831,17365.0,40,17370.0,54,17370.0,17370.0,17360.0,17365.0,105,-73,17360,73,17365,62
2016-10-25 08:34:00,08:34:06,08:34:59,8851,8970,17360.0,77,17365.0,62,17360.0,17370.0,17360.0,17370.0,154,10,17365,40,17370,34
2016-10-25 08:35:00,08:35:00,08:35:58,8971,9200,17365.0,32,17370.0,57,17370.0,17375.0,17365.0,17370.0,213,-47,17365,55,17375,68
2016-10-25 08:36:00,08:36:12,08:36:53,9219,9294,17370.0,3,17375.0,99,17370.0,17370.0,17370.0,17370.0,52,-52,17370,2,17375,72
2016-10-25 08:37:00,08:37:28,08:37:58,9341,9377,17370.0,42,17375.0,61,17375.0,17375.0,17375.0,17375.0,31,31,17370,38,17375,61
2016-10-25 08:38:00,08:38:00,08:38:57,9381,9482,17370.0,37,17375.0,61,17375.0,17375.0,17365.0,17365.0,149,-121,17365,10,17370,65
2016-10-25 08:39:00,08:39:00,08:39:59,9488,9603,17365.0,18,17370.0,65,17370.0,17370.0,17360.0,17360.0,79,-27,17360,25,17365,83
2016-10-25 08:40:00,08:40:00,08:40:59,9607,9693,17360.0,22,17365.0,83,17360.0,17365.0,17355.0,17365.0,113,15,17360,45,17365,12
2016-10-25 08:41:00,08:41:02,08:41:19,9701,9811,17360.0,45,17365.0,23,17365.0,17365.0,17360.0,17365.0,160,64,17365,17,17370,72
2016-10-25 08:42:00,08:42:05,08:42:37,9836,9867,17365.0,62,17370.0,78,17365.0,17365.0,17365.0,17365.0,23,-23,17365,50,17370,81
2016-10-25 08:43:00,08:43:01,08:43:59,9882,9991,17365.0,38,17370.0,83,17365.0,17365.0,17365.0,17365.0,165,83,17360,42,17365,5
2016-10-25 08:44:00,08:44:00,08:44:49,9994,10060,17360.0,42,17365.0,5,17365.0,17365.0,17360.0,17360.0,38,-32,17360,24,17365,59
2016-10-25 08:45:00,08:45:09,08:45:59,10085,10251,17360.0,47,17365.0,46,17360.0,17370.0,17355.0,17365.0,136,-16,17365,27,17370,58
2016-10-25 08:46:00,08:46:04,08:46:21,10256,10348,17365.0,18,17370.0,70,17370.0,17370.0,17365.0,17365.0,76,-8,17360,110,17365,3
2016-10-25 08:47:00,08:47:18,08:47:40,10411,10505,17360.0,109,17365.0,28,17360.0,17360.0,17355.0,17360.0,165,-83,17355,45,17360,7
2016-10-25 08:48:00,08:48:05,08:48:40,10527,10639,17355.0,47,17360.0,34,17360.0,17365.0,17360.0,17365.0,112,68,17360,15,17365,56
2016-10-25 08:49:00,08:49:05,08:49:53,10668,10730,17360.0,102,17365.0,43,17365.0,17365.0,17360.0,17360.0,17,7,17360,87,17365,60
2016-10-25 08:50:00,08:50:12,08:50:38,10740,10757,17360.0,90,17365.0,57,17365.0,17365.0,17365.0,17365.0,7,7,17360,100,17365,25
2016-10-25 08:51:00,08:51:04,08:51:10,10785,10792,17360.0,103,17365.0,38,17360.0,17365.0,17360.0,17365.0,4,-2,17360,84,17365,44
2016-10-25 08:52:00,08:52:27,08:52:54,10872,10988,17360.0,98,17365.0,37,17365.0,17370.0,17360.0,17365.0,138,-20,17360,74,17365,60
2016-10-25 08:53:00,08:53:03,08:53:51,10992,11061,17360.0,75,17365.0,60,17365.0,17365.0,17360.0,17360.0,90,-80,17360,58,17365,62
2016-10-25 08:54:00,08:54:22,08:54:58,11079,11162,17360.0,79,17365.0,49,17360.0,17360.0,17355.0,17355.0,94,-90,17355,55,17360,57
2016-10-25 08:55:00,08:55:03,08:55:59,11170,11254,17355.0,58,17360.0,60,17360.0,17360.0,17360.0,17360.0,101,64,17360,4,17365,69
2016-10-25 08:56:00,08:56:00,08:56:23,11258,11321,17360.0,5,17365.0,69,17360.0,17360.0,17360.0,17360.0,83,-43,17355,57,17365,76
2016-10-25 08:57:00,08:57:00,08:57:59,11355,11425,17360.0,53,17365.0,56,17365.0,17365.0,17360.0,17360.0,84,-66,17360,8,17365,66
2016-10-25 08:58:00,08:58:00,08:58:05,11428,11460,17360.0,8,17365.0,66,17365.0,17365.0,17360.0,17365.0,50,-38,17360,13,17365,62
2016-10-25 08:59:00,08:59:02,08:59:53,11481,11552,17360.0,27,17365.0,60,17365.0,17365.0,17365.0,17365.0,61,9,17365,26,17370,54
2016-10-25 09:00:00,09:00:02,09:00:23,11559,11628,17365.0,22,17370.0,56,17370.0,17370.0,17365.0,17365.0,93,81,17365,26,17370,32
2016-10-25 09:01:00,09:01:04,09:01:59,11675,11765,17365.0,46,17370.0,28,17370.0,17370.0,17365.0,17365.0,65,-5,17365,27,17370,48
2016-10-25 09:02:00,09:02:04,09:02:32,11772,11839,17365.0,33,17370.0,53,17365.0,17370.0,17365.0,17365.0,78,-68,17360,45,17365,30
2016-10-25 09:03:00,09:03:10,09:03:45,11868,11891,17360.0,78,17365.0,22,17365.0,17365.0,17360.0,17360.0,14,-10,17360,57,17365,31
2016-10-25 09:04:00,09:04:00,09:04:30,11898,11930,17360.0,59,17365.0,34,17365.0,17365.0,17365.0,17365.0,24,24,17360,59,17365,47
2016-10-25 09:05:00,09:05:00,09:05:54,11951,12001,17360.0,61,17365.0,66,17365.0,17365.0,17365.0,17365.0,47,47,17365,15,17370,67
2016-10-25 09:06:00,09:06:14,09:06:58,12015,12096,17365.0,49,17370.0,63,17365.0,17365.0,17360.0,17360.0,75,-33,17360,44,17365,30
2016-10-25 09:07:00,09:07:09,09:07:49,12114,12203,17360.0,48,17365.0,40,17365.0,17365.0,17365.0,17365.0,54,54,17360,45,17365,31
2016-10-25 09:08:00,09:08:09,09:08:42,12214,12253,17360.0,48,17365.0,27,17365.0,17365.0,17365.0,17365.0,19,19,17360,65,17365,13
2016-10-25 09:09:00,09:09:27,09:09:54,12277,12347,17360.0,68,17365.0,15,17365.0,17365.0,17360.0,17365.0,54,24,17360,60,17365,30
2016-10-25 09:10:00,09:10:21,09:10:53,12360,12407,17360.0,58,17365.0,36,17365.0,17365.0,17365.0,17365.0,55,55,17360,51,17365,5
2016-10-25 09:11:00,09:11:04,09:11:08,12420,12446,17360.0,52,17365.0,25,17365.0,17365.0,17365.0,17365.0,55,55,17360,54,17365,10
2016-10-25 09:12:00,09:12:14,09:12:54,12481,12531,17360.0,49,17365.0,51,17360.0,17360.0,17360.0,17360.0,62,-46,17360,36,17365,62
2016-10-25 09:13:00,09:13:00,09:13:47,12540,12578,17360.0,40,17365.0,62,17365.0,17365.0,17365.0,17365.0,28,28,17360,46,17365,49
2016-10-25 09:14:00,09:14:10,09:14:14,12587,12647,17360.0,47,17365.0,48,17360.0,17360.0,17360.0,17360.0,78,-78,17360,12,17365,60
2016-10-25 09:15:00,09:15:05,09:15:48,12681,12856,17360.0,41,17365.0,43,17365.0,17365.0,17355.0,17360.0,196,24,17355,49,17360,16
2016-10-25 09:16:00,09:16:13,09:16:50,12892,12974,17355.0,48,17360.0,32,17360.0,17365.0,17360.0,17365.0,53,53,17360,54,17365,16
2016-10-25 09:17:00,09:17:05,09:17:57,12993,13055,17360.0,55,17365.0,45,17365.0,17365.0,17360.0,17360.0,66,16,17355,57,17360,6
2016-10-25 09:18:00,09:18:00,09:18:21,13061,13115,17355.0,42,17360.0,3,17360.0,17360.0,17360.0,17360.0,54,37,17360,9,17365,56
2016-10-25 09:19:00,09:19:13,09:19:56,13159,13233,17360.0,35,17365.0,37,17360.0,17365.0,17360.0,17360.0,29,-25,17360,35,17365,48
2016-10-25 09:20:00,09:20:14,09:20:14,13259,13264,17360.0,29,17365.0,56,17360.0,17360.0,17360.0,17360.0,8,-8,17360,2,17365,62
2016-10-25 09:21:00,09:21:01,09:21:59,13300,13399,17360.0,28,17365.0,56,17360.0,17360.0,17355.0,17355.0,94,-38,17350,84,17355,32
2016-10-25 09:22:00,09:22:40,09:22:44,13427,13440,17350.0,90,17355.0,38,17350.0,17350.0,17350.0,17350.0,9,-9,17350,91,17355,38
2016-10-25 09:23:00,09:23:15,09:23:53,13461,13532,17350.0,88,17355.0,40,17350.0,17355.0,17350.0,17350.0,97,-79,17350,4,17355,92
2016-10-25 09:24:00,09:24:03,09:24:31,13541,13611,17350.0,32,17355.0,84,17350.0,17355.0,17350.0,17355.0,112,60,17350,54,17355,10
2016-10-25 09:25:00,09:25:08,09:25:52,13660,13750,17350.0,53,17355.0,18,17355.0,17355.0,17355.0,17355.0,84,14,17355,5,17360,51
2016-10-25 09:26:00,09:26:21,09:26:21,13788,13789,17350.0,46,17355.0,20,17355.0,17355.0,17355.0,17355.0,2,2,17350,47,17355,14
2016-10-25 09:27:00,09:27:40,09:27:40,13830,13830,17350.0,47,17355.0,40,17355.0,17355.0,17355.0,17355.0,1,1,17350,45,17355,39
2016-10-25 09:28:00,09:28:00,09:28:00,0,0,0.0,0,0.0,0,17355.0,17355.0,17355.0,17355.0,0,0,0,0,0,0
2016-10-25 09:29:00,09:29:16,09:29:59,13859,13924,17350.0,26,17355.0,46,17350.0,17350.0,17350.0,17350.0,47,-47,17350,3,17355,59
2016-10-25 09:30:00,09:30:00,09:30:55,13927,14112,17350.0,3,17355.0,59,17350.0,17350.0,17340.0,17350.0,197,-65,17345,57,17350,8
2016-10-25 09:31:00,09:31:21,09:31:57,14148,14224,17345.0,46,17350.0,46,17345.0,17345.0,17345.0,17345.0,89,3,17340,62,17350,49
2016-10-25 09:32:00,09:32:03,09:32:48,14235,14295,17340.0,63,17345.0,7,17345.0,17345.0,17345.0,17345.0,26,18,17340,64,17345,35
2016-10-25 09:33:00,09:33:18,09:33:57,14309,14378,17340.0,65,17345.0,43,17345.0,17345.0,17340.0,17345.0,54,-32,17335,53,17345,71
2016-10-25 09:34:00,09:34:03,09:34:58,14382,14460,17340.0,59,17345.0,74,17340.0,17340.0,17335.0,17335.0,61,-61,17335,31,17340,97
2016-10-25 09:35:00,09:35:02,09:35:35,14463,14601,17335.0,31,17340.0,97,17335.0,17335.0,17330.0,17330.0,194,-122,17330,22,17335,60
2016-10-25 09:36:00,09:36:07,09:36:34,14644,14718,17330.0,50,17335.0,33,17335.0,17340.0,17335.0,17340.0,66,56,17335,60,17340,38
2016-10-25 09:37:00,09:37:12,09:37:59,14762,14837,17335.0,67,17340.0,86,17340.0,17340.0,17330.0,17335.0,88,-80,17330,65,17335,35
2016-10-25 09:38:00,09:38:04,09:38:48,14844,14964,17330.0,63,17335.0,33,17335.0,17335.0,17330.0,17330.0,128,-46,17325,58,17330,31
2016-10-25 09:39:00,09:39:06,09:39:46,14991,15146,17325.0,33,17330.0,59,17325.0,17325.0,17325.0,17325.0,150,-92,17325,15,17330,62
2016-10-25 09:40:00,09:40:07,09:40:37,15179,15259,17325.0,36,17330.0,56,17330.0,17330.0,17325.0,17330.0,132,12,17325,59,17335,55
2016-10-25 09:41:00,09:41:32,09:41:55,15291,15337,17330.0,41,17335.0,49,17335.0,17335.0,17330.0,17330.0,53,-51,17330,13,17335,82
2016-10-25 09:42:00,09:42:01,09:42:48,15343,15397,17330.0,10,17335.0,85,17330.0,17330.0,17325.0,17325.0,12,-10,17325,26,17330,56
2016-10-25 09:43:00,09:43:03,09:43:33,15408,15491,17325.0,24,17330.0,55,17330.0,17330.0,17325.0,17325.0,48,-8,17325,17,17330,45
2016-10-25 09:44:00,09:44:27,09:44:33,15528,15543,17325.0,22,17330.0,50,17330.0,17330.0,17330.0,17330.0,12,12,17330,33,17335,54
2016-10-25 09:45:00,09:45:14,09:45:54,15590,15631,17330.0,51,17335.0,57,17335.0,17335.0,17335.0,17335.0,43,43,17335,44,17340,62
2016-10-25 09:46:00,09:46:06,09:46:06,15648,15648,17335.0,37,17340.0,56,17340.0,17340.0,17340.0,17340.0,1,1,17335,35,17340,52
2016-10-25 09:47:00,09:47:10,09:47:50,15705,15793,17335.0,36,17340.0,61,17340.0,17340.0,17335.0,17335.0,92,50,17330,51,17335,25
2016-10-25 09:48:00,09:48:00,09:48:52,15804,15901,17330.0,52,17335.0,28,17335.0,17335.0,17335.0,17335.0,70,28,17330,58,17335,5
2016-10-25 09:49:00,09:49:03,09:49:55,15912,15977,17330.0,59,17335.0,22,17335.0,17335.0,17335.0,17335.0,25,7,17330,54,17335,10
2016-10-25 09:50:00,09:50:14,09:50:14,15994,15999,17330.0,56,17335.0,17,17335.0,17335.0,17335.0,17335.0,6,6,17335,34,17340,62
2016-10-25 09:51:00,09:51:08,09:51:27,16036,16053,17335.0,53,17340.0,53,17340.0,17340.0,17340.0,17340.0,22,22,17335,68,17340,38
2016-10-25 09:52:00,09:52:04,09:52:19,16085,16170,17335.0,56,17340.0,50,17340.0,17340.0,17335.0,17335.0,139,-63,17335,45,17335,7
2016-10-25 09:53:00,09:53:43,09:53:43,16264,16264,17335.0,68,17340.0,49,17340.0,17340.0,17340.0,17340.0,1,1,17335,67,17340,41
2016-10-25 09:54:00,09:54:01,09:54:01,16279,16279,17335.0,61,17340.0,52,17340.0,17340.0,17340.0,17340.0,1,1,17335,60,17340,51
2016-10-25 09:55:00,09:55:04,09:55:43,16322,16445,17335.0,73,17340.0,42,17340.0,17350.0,17340.0,17350.0,163,124,17345,42,17350,44
2016-10-25 09:56:00,09:56:05,09:56:44,16451,16485,17345.0,45,17350.0,44,17345.0,17350.0,17345.0,17350.0,8,-2,17345,44,17350,33
2016-10-25 09:57:00,09:57:31,09:57:33,16521,16526,17345.0,63,17350.0,31,17350.0,17350.0,17350.0,17350.0,3,3,17345,71,17350,27
2016-10-25 09:58:00,09:58:30,09:58:54,16546,16561,17345.0,57,17350.0,50,17350.0,17350.0,17350.0,17350.0,11,11,17345,57,17350,45
2016-10-25 09:59:00,09:59:31,09:59:33,16573,16578,17345.0,53,17350.0,45,17350.0,17350.0,17350.0,17350.0,4,4,17345,53,17350,41
2016-10-25 10:00:00,10:00:08,10:00:21,16600,16613,17345.0,47,17350.0,50,17345.0,17350.0,17345.0,17350.0,16,14,17345,55,17350,27
2016-10-25 10:01:00,10:01:14,10:01:57,16661,16908,17345.0,53,17350.0,50,17350.0,17350.0,17345.0,17350.0,311,23,17350,19,17355,50
2016-10-25 10:02:00,10:02:18,10:02:57,16929,17041,17350.0,12,17355.0,51,17350.0,17350.0,17345.0,17345.0,115,-113,17345,9,17350,44
2016-10-25 10:03:00,10:03:06,10:03:53,17048,17256,17345.0,8,17350.0,45,17345.0,17350.0,17345.0,17345.0,372,20,17340,68,17345,37
2016-10-25 10:04:00,10:04:03,10:04:25,17265,17307,17340.0,65,17345.0,46,17345.0,17345.0,17345.0,17345.0,52,20,17345,1,17350,63
2016-10-25 10:05:00,10:05:30,10:05:35,17331,17369,17345.0,59,17350.0,45,17350.0,17350.0,17350.0,17350.0,51,-7,17350,3,17355,54
2016-10-25 10:06:00,10:06:01,10:06:49,17400,17483,17350.0,62,17355.0,38,17355.0,17360.0,17355.0,17360.0,66,66,17355,35,17360,61
2016-10-25 10:07:00,10:07:00,10:07:00,0,0,0.0,0,0.0,0,17360.0,17360.0,17360.0,17360.0,0,0,0,0,0,0
2016-10-25 10:08:00,10:08:01,10:08:51,17523,17599,17355.0,49,17360.0,63,17355.0,17355.0,17355.0,17355.0,85,-25,17355,2,17360,66
2016-10-25 10:09:00,10:09:03,10:09:59,17621,17690,17355.0,29,17360.0,67,17360.0,17360.0,17355.0,17355.0,37,-21,17355,10,17360,65
2016-10-25 10:10:00,10:10:35,10:10:39,17710,17728,17355.0,15,17360.0,71,17355.0,17355.0,17355.0,17355.0,17,-7,17350,49,17355,7
2016-10-25 10:11:00,10:11:04,10:11:47,17745,17772,17350.0,48,17355.0,15,17355.0,17355.0,17355.0,17355.0,16,16,17350,72,17355,10
2016-10-25 10:12:00,10:12:04,10:12:58,17781,17859,17350.0,72,17355.0,6,17355.0,17355.0,17355.0,17355.0,48,48,17350,72,17355,19
2016-10-25 10:13:00,10:13:59,10:13:59,17889,17908,17350.0,77,17355.0,27,17350.0,17355.0,17350.0,17355.0,27,-25,17350,63,17355,37
2016-10-25 10:14:00,10:14:00,10:14:56,17911,18102,17350.0,63,17355.0,37,17350.0,17350.0,17345.0,17345.0,260,-180,17340,63,17345,23
2016-10-25 10:15:00,10:15:03,10:15:56,18117,18272,17340.0,66,17345.0,26,17345.0,17345.0,17340.0,17340.0,162,-38,17340,7,17345,75
2016-10-25 10:16:00,10:16:00,10:16:38,18278,18349,17340.0,14,17345.0,76,17340.0,17340.0,17340.0,17340.0,38,-32,17335,78,17340,18
2016-10-25 10:17:00,10:17:04,10:17:56,18367,18517,17335.0,79,17340.0,12,17340.0,17340.0,17340.0,17340.0,167,57,17340,8,17345,54
2016-10-25 10:18:00,10:18:20,10:18:20,18551,18562,17340.0,27,17345.0,56,17340.0,17340.0,17340.0,17340.0,27,-27,17340,22,17345,54
2016-10-25 10:19:00,10:19:15,10:19:38,18605,18634,17340.0,25,17345.0,57,17340.0,17345.0,17340.0,17345.0,28,-26,17340,38,17345,54
2016-10-25 10:20:00,10:20:31,10:20:38,18652,18680,17340.0,32,17345.0,60,17340.0,17340.0,17340.0,17340.0,25,-23,17340,1,17345,61
2016-10-25 10:21:00,10:21:21,10:21:46,18702,18719,17340.0,94,17345.0,54,17340.0,17340.0,17340.0,17340.0,16,-16,17340,66,17345,70
2016-10-25 10:22:00,10:22:33,10:22:33,18767,18767,17340.0,83,17345.0,61,17345.0,17345.0,17345.0,17345.0,1,1,17340,84,17345,60
2016-10-25 10:23:00,10:23:19,10:23:49,18794,18866,17340.0,96,17345.0,59,17340.0,17340.0,17340.0,17340.0,128,-20,17340,12,17345,63
2016-10-25 10:24:00,10:24:08,10:24:55,18897,18947,17340.0,12,17345.0,66,17340.0,17340.0,17340.0,17340.0,12,-12,17340,82,17345,57
2016-10-25 10:25:00,10:25:28,10:25:28,18970,18970,17340.0,80,17345.0,63,17345.0,17345.0,17345.0,17345.0,1,1,17340,81,17345,62
2016-10-25 10:26:00,10:26:06,10:26:06,19001,19002,17340.0,75,17345.0,65,17340.0,17340.0,17340.0,17340.0,2,-2,17340,71,17345,68
2016-10-25 10:27:00,10:27:03,10:27:17,19038,19057,17340.0,83,17345.0,63,17340.0,17345.0,17340.0,17340.0,7,-5,17340,80,17345,60
2016-10-25 10:28:00,10:28:03,10:28:59,19080,19169,17340.0,79,17345.0,65,17345.0,17350.0,17345.0,17350.0,80,69,17345,36,17350,86
2016-10-25 10:29:00,10:29:14,10:29:58,19184,19312,17345.0,48,17350.0,82,17345.0,17345.0,17340.0,17340.0,161,-129,17340,37,17345,45
2016-10-25 10:30:00,10:30:11,10:30:24,19330,19351,17340.0,35,17345.0,52,17340.0,17345.0,17340.0,17340.0,25,21,17340,35,17345,36
2016-10-25 10:31:00,10:31:00,10:31:00,0,0,0.0,0,0.0,0,17340.0,17340.0,17340.0,17340.0,0,0,0,0,0,0
2016-10-25 10:32:00,10:32:07,10:32:58,19392,19503,17340.0,24,17345.0,52,17340.0,17340.0,17340.0,17340.0,101,-1,17335,79,17340,9
2016-10-25 10:33:00,10:33:03,10:33:04,19509,19515,17335.0,79,17340.0,18,17340.0,17340.0,17340.0,17340.0,12,8,17340,16,17345,50
2016-10-25 10:34:00,10:34:00,10:34:00,0,0,0.0,0,0.0,0,17340.0,17340.0,17340.0,17340.0,0,0,0,0,0,0
2016-10-25 10:35:00,10:35:00,10:35:00,0,0,0.0,0,0.0,0,17340.0,17340.0,17340.0,17340.0,0,0,0,0,0,0
2016-10-25 10:36:00,10:36:51,10:36:59,19623,19658,17340.0,37,17345.0,44,17345.0,17345.0,17345.0,17345.0,52,52,17345,34,17350,51
2016-10-25 10:37:00,10:37:01,10:37:01,19662,19669,17345.0,34,17350.0,41,17345.0,17345.0,17345.0,17345.0,14,-14,17340,48,17350,51
2016-10-25 10:38:00,10:38:09,10:38:09,19698,19700,17345.0,28,17350.0,44,17350.0,17350.0,17350.0,17350.0,3,3,17345,27,17350,39
2016-10-25 10:39:00,10:39:59,10:39:59,19734,19734,17345.0,40,17350.0,41,17345.0,17345.0,17345.0,17345.0,1,-1,17345,39,17350,45
2016-10-25 10:40:00,10:40:19,10:40:58,19748,19812,17345.0,36,17350.0,48,17345.0,17350.0,17345.0,17350.0,79,17,17350,38,17355,50
2016-10-25 10:41:00,10:41:02,10:41:07,19818,19849,17350.0,47,17355.0,51,17350.0,17350.0,17350.0,17350.0,49,-39,17345,41,17350,9
2016-10-25 10:42:00,10:42:45,10:42:49,19879,19892,17345.0,41,17350.0,51,17350.0,17350.0,17350.0,17350.0,11,11,17345,47,17350,43
2016-10-25 10:43:00,10:43:07,10:43:28,19904,19948,17345.0,46,17350.0,38,17350.0,17350.0,17350.0,17350.0,49,48,17345,47,17350,30
2016-10-25 10:44:00,10:44:00,10:44:00,0,0,0.0,0,0.0,0,17350.0,17350.0,17350.0,17350.0,0,0,0,0,0,0
2016-10-25 10:45:00,10:45:12,10:45:12,19994,19994,17345.0,43,17350.0,40,17350.0,17350.0,17350.0,17350.0,1,1,17345,45,17350,39
2016-10-25 10:46:00,10:46:25,10:46:25,20001,20005,17345.0,45,17350.0,42,17350.0,17350.0,17350.0,17350.0,8,8,17345,44,17350,34
2016-10-25 10:47:00,10:47:20,10:47:20,20015,20026,17345.0,46,17350.0,37,17345.0,17345.0,17345.0,17345.0,15,-15,17345,30,17350,45
2016-10-25 10:48:00,10:48:00,10:48:00,0,0,0.0,0,0.0,0,17345.0,17345.0,17345.0,17345.0,0,0,0,0,0,0
2016-10-25 10:49:00,10:49:03,10:49:03,20070,20070,17345.0,30,17350.0,43,17350.0,17350.0,17350.0,17350.0,1,1,17345,35,17350,37
2016-10-25 10:50:00,10:50:53,10:50:53,20124,20141,17345.0,44,17350.0,37,17350.0,17350.0,17350.0,17350.0,31,31,17350,47,17355,41
2016-10-25 10:51:00,10:51:00,10:51:00,0,0,0.0,0,0.0,0,17350.0,17350.0,17350.0,17350.0,0,0,0,0,0,0
2016-10-25 10:52:00,10:52:06,10:52:44,20185,20264,17350.0,61,17355.0,41,17355.0,17355.0,17355.0,17355.0,87,38,17350,60,17355,18
2016-10-25 10:53:00,10:53:00,10:53:00,0,0,0.0,0,0.0,0,17355.0,17355.0,17355.0,17355.0,0,0,0,0,0,0
2016-10-25 10:54:00,10:54:23,10:54:59,20308,20357,17350.0,60,17355.0,21,17355.0,17355.0,17355.0,17355.0,34,34,17355,2,17360,81
2016-10-25 10:55:00,10:55:02,10:55:17,20359,20383,17350.0,60,17360.0,81,17355.0,17355.0,17355.0,17355.0,26,9,17355,1,17360,84
2016-10-25 10:56:00,10:56:22,10:56:59,20433,20482,17355.0,7,17360.0,90,17355.0,17360.0,17355.0,17360.0,32,-26,17355,25,17360,72
2016-10-25 10:57:00,10:57:17,10:57:45,20497,20586,17355.0,33,17360.0,64,17360.0,17365.0,17360.0,17360.0,112,42,17355,43,17360,27
2016-10-25 10:58:00,10:58:00,10:58:00,0,0,0.0,0,0.0,0,17360.0,17360.0,17360.0,17360.0,0,0,0,0,0,0
2016-10-25 10:59:00,10:59:00,10:59:00,0,0,0.0,0,0.0,0,17360.0,17360.0,17360.0,17360.0,0,0,0,0,0,0
2016-10-25 11:00:00,11:00:01,11:00:23,20667,20682,17355.0,25,17360.0,51,17360.0,17360.0,17360.0,17360.0,2,2,17355,35,17360,43
2016-10-25 11:01:00,11:01:00,11:01:38,20698,20737,17355.0,33,17360.0,60,17355.0,17360.0,17355.0,17360.0,37,17,17355,46,17360,42
2016-10-25 11:02:00,11:02:00,11:02:00,0,0,0.0,0,0.0,0,17360.0,17360.0,17360.0,17360.0,0,0,0,0,0,0
2016-10-25 11:03:00,11:03:07,11:03:58,20764,20794,17355.0,47,17360.0,39,17360.0,17360.0,17355.0,17355.0,9,5,17355,48,17360,32
2016-10-25 11:04:00,11:04:00,11:04:00,0,0,0.0,0,0.0,0,17355.0,17355.0,17355.0,17355.0,0,0,0,0,0,0
2016-10-25 11:05:00,11:05:00,11:05:00,0,0,0.0,0,0.0,0,17355.0,17355.0,17355.0,17355.0,0,0,0,0,0,0
2016-10-25 11:06:00,11:06:40,11:06:40,20844,20849,17355.0,60,17360.0,34,17355.0,17355.0,17355.0,17355.0,10,-10,17355,51,17360,37
2016-10-25 11:07:00,11:07:18,11:07:37,20865,20880,17355.0,49,17360.0,39,17360.0,17360.0,17360.0,17360.0,3,3,17355,54,17360,33
2016-10-25 11:08:00,11:08:39,11:08:46,20905,20909,17355.0,73,17360.0,29,17360.0,17360.0,17360.0,17360.0,2,2,17355,71,17360,23
2016-10-25 11:09:00,11:09:30,11:09:58,20925,20944,17355.0,76,17360.0,32,17360.0,17360.0,17360.0,17360.0,5,5,17355,77,17360,21
2016-10-25 11:10:00,11:10:03,11:10:36,20949,21095,17355.0,78,17360.0,16,17360.0,17360.0,17355.0,17355.0,170,8,17350,65,17355,3
2016-10-25 11:11:00,11:11:50,11:11:53,21121,21135,17350.0,71,17355.0,40,17350.0,17350.0,17350.0,17350.0,10,-10,17350,69,17355,32
2016-10-25 11:12:00,11:12:50,11:12:54,21148,21159,17350.0,75,17355.0,13,17355.0,17355.0,17355.0,17355.0,16,16,17350,73,17355,5
2016-10-25 11:13:00,11:13:01,11:13:10,21162,21196,17350.0,73,17355.0,5,17355.0,17355.0,17355.0,17355.0,25,-6,17350,58,17355,3
2016-10-25 11:14:00,11:14:31,11:14:46,21218,21236,17350.0,66,17355.0,6,17355.0,17355.0,17355.0,17355.0,11,7,17350,64,17355,30
2016-10-25 11:15:00,11:15:00,11:15:00,0,0,0.0,0,0.0,0,17355.0,17355.0,17355.0,17355.0,0,0,0,0,0,0
2016-10-25 11:16:00,11:16:44,11:16:44,21274,21274,17350.0,63,17355.0,31,17355.0,17355.0,17355.0,17355.0,1,1,17350,62,17355,30
2016-10-25 11:17:00,11:17:06,11:17:50,21292,21322,17350.0,63,17355.0,41,17355.0,17355.0,17355.0,17355.0,6,6,17350,54,17355,50
2016-10-25 11:18:00,11:18:00,11:18:00,0,0,0.0,0,0.0,0,17355.0,17355.0,17355.0,17355.0,0,0,0,0,0,0
2016-10-25 11:19:00,11:19:03,11:19:20,21341,21353,17350.0,57,17355.0,44,17350.0,17350.0,17350.0,17350.0,2,-2,17350,56,17355,45
2016-10-25 11:20:00,11:20:00,11:20:00,0,0,0.0,0,0.0,0,17350.0,17350.0,17350.0,17350.0,0,0,0,0,0,0
2016-10-25 11:21:00,11:21:57,11:21:57,21378,21378,17350.0,59,17355.0,30,17350.0,17350.0,17350.0,17350.0,1,-1,17350,60,17355,29
2016-10-25 11:22:00,11:22:09,11:22:09,21382,21382,17350.0,60,17355.0,33,17355.0,17355.0,17355.0,17355.0,1,1,17350,59,17355,30
2016-10-25 11:23:00,11:23:44,11:23:44,21401,21401,17350.0,54,17355.0,34,17355.0,17355.0,17355.0,17355.0,2,2,17350,56,17355,29
2016-10-25 11:24:00,11:24:05,11:24:43,21408,21459,17350.0,56,17355.0,27,17355.0,17355.0,17350.0,17350.0,43,13,17350,23,17355,42
2016-10-25 11:25:00,11:25:00,11:25:00,0,0,0.0,0,0.0,0,17350.0,17350.0,17350.0,17350.0,0,0,0,0,0,0
2016-10-25 11:26:00,11:26:00,11:26:00,0,0,0.0,0,0.0,0,17350.0,17350.0,17350.0,17350.0,0,0,0,0,0,0
2016-10-25 11:27:00,11:27:00,11:27:00,0,0,0.0,0,0.0,0,17350.0,17350.0,17350.0,17350.0,0,0,0,0,0,0
2016-10-25 11:28:00,11:28:00,11:28:00,0,0,0.0,0,0.0,0,17350.0,17350.0,17350.0,17350.0,0,0,0,0,0,0
2016-10-25 11:29:00,11:29:51,11:29:51,21540,21562,17350.0,61,17355.0,28,17355.0,17355.0,17355.0,17355.0,29,29,17350,63,17355,12
2016-10-25 11:30:00,11:30:10,11:30:21,21592,21670,17350.0,55,17355.0,58,17350.0,17355.0,17350.0,17350.0,139,-39,17345,62,17350,27
2016-10-25 11:31:00,11:31:25,11:31:40,21736,21795,17345.0,164,17350.0,41,17350.0,17350.0,17350.0,17350.0,99,-39,17350,7,17355,54
2016-10-25 11:32:00,11:32:02,11:32:33,21819,21963,17350.0,20,17355.0,56,17350.0,17355.0,17350.0,17355.0,187,-11,17355,16,17360,91
2016-10-25 11:33:00,11:33:00,11:33:00,0,0,0.0,0,0.0,0,17355.0,17355.0,17355.0,17355.0,0,0,0,0,0,0
2016-10-25 11:34:00,11:34:37,11:34:38,22086,22097,17355.0,34,17360.0,98,17360.0,17360.0,17360.0,17360.0,16,16,17355,46,17360,88
2016-10-25 11:35:00,11:35:25,11:35:53,22135,22152,17355.0,49,17360.0,94,17360.0,17360.0,17360.0,17360.0,4,4,17355,49,17360,92
2016-10-25 11:36:00,11:36:02,11:36:43,22159,22190,17355.0,50,17360.0,90,17360.0,17360.0,17360.0,17360.0,5,5,17355,52,17360,89
2016-10-25 11:37:00,11:37:11,11:37:56,22215,22447,17355.0,51,17360.0,87,17355.0,17355.0,17350.0,17350.0,256,-183,17350,43,17355,26
2016-10-25 11:38:00,11:38:03,11:38:59,22459,22572,17350.0,64,17355.0,21,17355.0,17355.0,17350.0,17355.0,100,-50,17350,66,17355,38
2016-10-25 11:39:00,11:39:04,11:39:59,22575,22620,17350.0,66,17355.0,38,17355.0,17355.0,17355.0,17355.0,18,18,17350,67,17355,57
2016-10-25 11:40:00,11:40:04,11:40:55,22623,22672,17350.0,67,17355.0,57,17355.0,17355.0,17355.0,17355.0,18,18,17350,74,17355,44
2016-10-25 11:41:00,11:41:00,11:41:57,22675,22755,17350.0,73,17355.0,43,17355.0,17360.0,17355.0,17360.0,64,62,17355,42,17360,36
2016-10-25 11:42:00,11:42:01,11:42:57,22757,22879,17355.0,43,17360.0,36,17360.0,17360.0,17355.0,17360.0,99,28,17355,32,17360,41
2016-10-25 11:43:00,11:43:02,11:43:53,22884,22944,17355.0,32,17360.0,40,17360.0,17360.0,17360.0,17360.0,21,21,17355,35,17360,38
2016-10-25 11:44:00,11:44:03,11:44:14,22955,22980,17355.0,31,17360.0,45,17360.0,17360.0,17360.0,17360.0,30,30,17360,48,17365,78
2016-10-25 11:45:00,11:45:00,11:45:00,0,0,0.0,0,0.0,0,17360.0,17360.0,17360.0,17360.0,0,0,0,0,0,0
2016-10-25 11:46:00,11:46:29,11:46:57,23053,23086,17360.0,83,17365.0,90,17365.0,17365.0,17365.0,17365.0,49,49,17360,113,17365,41
2016-10-25 11:47:00,11:47:08,11:47:37,23090,23098,17360.0,113,17365.0,42,17365.0,17365.0,17360.0,17360.0,4,0,17360,111,17365,51
2016-10-25 11:48:00,11:48:12,11:48:50,23109,23135,17360.0,103,17365.0,53,17360.0,17365.0,17360.0,17365.0,32,-30,17360,83,17365,56
2016-10-25 11:49:00,11:49:37,11:49:38,23176,23178,17360.0,72,17365.0,67,17365.0,17365.0,17365.0,17365.0,2,2,17360,77,17365,60
2016-10-25 11:50:00,11:50:00,11:50:00,0,0,0.0,0,0.0,0,17365.0,17365.0,17365.0,17365.0,0,0,0,0,0,0
2016-10-25 11:51:00,11:51:23,11:51:59,23246,23290,17360.0,90,17365.0,59,17360.0,17365.0,17360.0,17365.0,7,5,17360,95,17365,59
2016-10-25 11:52:00,11:52:02,11:52:02,23296,23296,17360.0,88,17365.0,63,17365.0,17365.0,17365.0,17365.0,1,1,17360,87,17365,62
2016-10-25 11:53:00,11:53:01,11:53:55,23338,23474,17360.0,100,17365.0,57,17365.0,17365.0,17365.0,17365.0,136,87,17360,119,17365,37
2016-10-25 11:54:00,11:54:03,11:54:55,23481,23522,17360.0,119,17365.0,54,17365.0,17365.0,17365.0,17365.0,8,8,17360,125,17365,54
2016-10-25 11:55:00,11:55:02,11:55:55,23525,23673,17360.0,125,17365.0,54,17365.0,17365.0,17365.0,17365.0,133,44,17360,71,17365,35
2016-10-25 11:56:00,11:56:18,11:56:56,23685,23720,17360.0,80,17365.0,31,17365.0,17365.0,17365.0,17365.0,6,6,17360,83,17365,42
2016-10-25 11:57:00,11:57:02,11:57:58,23723,23794,17360.0,83,17365.0,42,17365.0,17370.0,17365.0,17370.0,71,71,17365,133,17370,43
2016-10-25 11:58:00,11:58:03,11:58:43,23801,23888,17365.0,133,17370.0,44,17370.0,17375.0,17370.0,17375.0,47,47,17370,97,17375,40
2016-10-25 11:59:00,11:59:01,11:59:42,23906,24045,17370.0,107,17375.0,46,17375.0,17375.0,17375.0,17375.0,141,21,17370,85,17375,21
2016-10-25 12:00:00,12:00:04,12:00:58,24080,24150,17370.0,63,17375.0,22,17375.0,17375.0,17375.0,17375.0,31,11,17370,68,17375,22
2016-10-25 12:01:00,12:01:01,12:01:53,24155,24449,17370.0,68,17375.0,34,17375.0,17385.0,17375.0,17375.0,439,114,17370,54,17375,23
2016-10-25 12:02:00,12:02:03,12:02:53,24466,24567,17370.0,80,17375.0,39,17375.0,17380.0,17375.0,17380.0,76,56,17375,44,17380,39
2016-10-25 12:03:00,12:03:01,12:03:55,24570,24614,17375.0,44,17380.0,39,17380.0,17380.0,17380.0,17380.0,11,11,17375,54,17380,50
2016-10-25 12:04:00,12:04:02,12:04:43,24622,24688,17375.0,50,17380.0,58,17375.0,17375.0,17370.0,17370.0,53,-45,17370,57,17375,46
2016-10-25 12:05:00,12:05:13,12:05:59,24703,24760,17370.0,69,17375.0,46,17375.0,17375.0,17375.0,17375.0,43,43,17370,97,17375,25
2016-10-25 12:06:00,12:06:25,12:06:41,24783,24856,17370.0,86,17375.0,34,17370.0,17370.0,17370.0,17370.0,87,-21,17365,100,17370,2
2016-10-25 12:07:00,12:07:14,12:07:48,24887,24944,17365.0,100,17370.0,18,17370.0,17370.0,17365.0,17365.0,33,-7,17365,16,17370,54
2016-10-25 12:08:00,12:08:00,12:08:00,0,0,0.0,0,0.0,0,17365.0,17365.0,17365.0,17365.0,0,0,0,0,0,0
2016-10-25 12:09:00,12:09:00,12:09:00,0,0,0.0,0,0.0,0,17365.0,17365.0,17365.0,17365.0,0,0,0,0,0,0
2016-10-25 12:10:00,12:10:08,12:10:59,25031,25050,17365.0,34,17370.0,54,17365.0,17365.0,17365.0,17365.0,2,-2,17365,30,17370,63
2016-10-25 12:11:00,12:11:00,12:11:13,25052,25097,17365.0,30,17370.0,65,17370.0,17370.0,17365.0,17365.0,29,-17,17365,16,17370,59
2016-10-25 12:12:00,12:12:00,12:12:00,0,0,0.0,0,0.0,0,17365.0,17365.0,17365.0,17365.0,0,0,0,0,0,0
2016-10-25 12:13:00,12:13:44,12:13:44,25193,25193,17365.0,43,17370.0,69,17370.0,17370.0,17370.0,17370.0,1,1,17365,42,17370,68
2016-10-25 12:14:00,12:14:55,12:14:55,25229,25229,17365.0,41,17370.0,66,17365.0,17365.0,17365.0,17365.0,1,-1,17365,40,17370,65
2016-10-25 12:15:00,12:15:35,12:15:35,25252,25261,17365.0,36,17370.0,65,17365.0,17370.0,17365.0,17370.0,24,14,17365,48,17370,44
2016-10-25 12:16:00,12:16:15,12:16:55,25295,25389,17365.0,65,17370.0,59,17370.0,17370.0,17365.0,17365.0,106,26,17360,64,17370,68
2016-10-25 12:17:00,12:17:01,12:17:34,25397,25438,17365.0,17,17370.0,68,17365.0,17365.0,17365.0,17365.0,26,-10,17360,46,17365,43
2016-10-25 12:18:00,12:18:21,12:18:35,25462,25472,17360.0,62,17365.0,57,17365.0,17365.0,17360.0,17360.0,6,-4,17360,61,17365,59
2016-10-25 12:19:00,12:19:45,12:19:45,25493,25493,17360.0,65,17365.0,63,17365.0,17365.0,17365.0,17365.0,1,1,17360,61,17365,62
2016-10-25 12:20:00,12:20:00,12:20:00,0,0,0.0,0,0.0,0,17365.0,17365.0,17365.0,17365.0,0,0,0,0,0,0
2016-10-25 12:21:00,12:21:19,12:21:51,25536,25617,17360.0,54,17365.0,41,17365.0,17365.0,17360.0,17360.0,90,12,17355,50,17360,14
2016-10-25 12:22:00,12:22:04,12:22:45,25631,25743,17355.0,41,17360.0,38,17355.0,17355.0,17355.0,17355.0,90,10,17350,61,17360,66
2016-10-25 12:23:00,12:23:43,12:23:59,25787,25813,17350.0,52,17355.0,26,17350.0,17355.0,17350.0,17355.0,17,-15,17350,51,17355,18
2016-10-25 12:24:00,12:24:00,12:24:48,25814,25880,17350.0,41,17355.0,36,17355.0,17355.0,17350.0,17355.0,38,18,17350,40,17355,50
2016-10-25 12:25:00,12:25:31,12:25:31,25911,25911,17350.0,40,17355.0,52,17355.0,17355.0,17355.0,17355.0,1,1,17350,45,17355,47
2016-10-25 12:26:00,12:26:55,12:26:55,25951,25952,17350.0,43,17355.0,48,17350.0,17350.0,17350.0,17350.0,2,-2,17350,42,17355,49
2016-10-25 12:27:00,12:27:40,12:27:40,25969,25969,17350.0,44,17355.0,48,17355.0,17355.0,17355.0,17355.0,1,1,17350,43,17355,47
2016-10-25 12:28:00,12:28:03,12:28:38,25982,26035,17350.0,54,17355.0,43,17355.0,17355.0,17350.0,17350.0,21,-11,17345,122,17350,40
2016-10-25 12:29:00,12:29:21,12:29:22,26065,26095,17345.0,127,17350.0,39,17350.0,17350.0,17350.0,17350.0,40,38,17350,86,17355,38
2016-10-25 12:30:00,12:30:04,12:30:45,26117,26153,17350.0,78,17355.0,48,17350.0,17355.0,17350.0,17355.0,34,-30,17350,53,17355,52
2016-10-25 12:31:00,12:31:00,12:31:00,0,0,0.0,0,0.0,0,17355.0,17355.0,17355.0,17355.0,0,0,0,0,0,0
2016-10-25 12:32:00,12:32:00,12:32:00,0,0,0.0,0,0.0,0,17355.0,17355.0,17355.0,17355.0,0,0,0,0,0,0
2016-10-25 12:33:00,12:33:35,12:33:35,26232,26232,17350.0,84,17355.0,42,17355.0,17355.0,17355.0,17355.0,1,1,17350,83,17355,41
2016-10-25 12:34:00,12:34:03,12:34:56,26243,26285,17350.0,83,17355.0,46,17355.0,17355.0,17355.0,17355.0,34,34,17355,54,17360,50
2016-10-25 12:35:00,12:35:00,12:35:55,26289,26335,17355.0,53,17360.0,50,17360.0,17360.0,17360.0,17360.0,3,3,17355,66,17360,33
2016-10-25 12:36:00,12:36:00,12:36:00,0,0,0.0,0,0.0,0,17360.0,17360.0,17360.0,17360.0,0,0,0,0,0,0
2016-10-25 12:37:00,12:37:09,12:37:09,26370,26370,17355.0,61,17360.0,39,17355.0,17355.0,17355.0,17355.0,2,-2,17355,59,17360,45
2016-10-25 12:38:00,12:38:02,12:38:43,26413,26505,17355.0,58,17360.0,113,17355.0,17355.0,17350.0,17350.0,164,-120,17350,45,17355,20
2016-10-25 12:39:00,12:39:15,12:39:59,26521,26622,17350.0,44,17355.0,23,17355.0,17360.0,17355.0,17360.0,176,88,17360,18,17365,69
2016-10-25 12:40:00,12:40:00,12:40:26,26625,26700,17360.0,18,17365.0,69,17360.0,17365.0,17360.0,17365.0,92,6,17360,20,17365,69
2016-10-25 12:41:00,12:41:03,12:41:54,26739,26825,17360.0,41,17365.0,47,17360.0,17360.0,17360.0,17360.0,99,-91,17355,53,17360,27
2016-10-25 12:42:00,12:42:13,12:42:14,26837,26851,17355.0,73,17360.0,18,17360.0,17360.0,17360.0,17360.0,24,24,17355,74,17360,9
2016-10-25 12:43:00,12:43:52,12:43:52,26912,26921,17355.0,63,17360.0,25,17360.0,17360.0,17360.0,17360.0,16,16,17360,51,17365,53
2016-10-25 12:44:00,12:44:15,12:44:57,26936,27007,17360.0,50,17365.0,57,17365.0,17365.0,17360.0,17360.0,61,-23,17360,18,17365,66
2016-10-25 12:45:00,12:45:10,12:45:25,27021,27070,17360.0,27,17365.0,66,17360.0,17360.0,17355.0,17355.0,54,-54,17355,23,17360,52
2016-10-25 12:46:00,12:46:24,12:46:33,27146,27179,17355.0,50,17360.0,29,17360.0,17360.0,17360.0,17360.0,53,31,17355,45,17360,67
2016-10-25 12:47:00,12:47:00,12:47:00,0,0,0.0,0,0.0,0,17360.0,17360.0,17360.0,17360.0,0,0,0,0,0,0
2016-10-25 12:48:00,12:48:00,12:48:00,0,0,0.0,0,0.0,0,17360.0,17360.0,17360.0,17360.0,0,0,0,0,0,0
2016-10-25 12:49:00,12:49:50,12:49:50,27297,27297,17355.0,51,17360.0,46,17360.0,17360.0,17360.0,17360.0,1,1,17355,52,17360,45
2016-10-25 12:50:00,12:50:06,12:50:06,27305,27305,17355.0,51,17360.0,47,17360.0,17360.0,17360.0,17360.0,1,1,17355,50,17360,44
2016-10-25 12:51:00,12:51:00,12:51:00,0,0,0.0,0,0.0,0,17360.0,17360.0,17360.0,17360.0,0,0,0,0,0,0
2016-10-25 12:52:00,12:52:11,12:52:30,27372,27379,17355.0,73,17360.0,45,17360.0,17360.0,17355.0,17360.0,4,2,17355,68,17360,44
2016-10-25 12:53:00,12:53:00,12:53:00,0,0,0.0,0,0.0,0,17360.0,17360.0,17360.0,17360.0,0,0,0,0,0,0
2016-10-25 12:54:00,12:54:00,12:54:00,0,0,0.0,0,0.0,0,17360.0,17360.0,17360.0,17360.0,0,0,0,0,0,0
2016-10-25 12:55:00,12:55:19,12:55:19,27476,27476,17355.0,65,17360.0,106,17360.0,17360.0,17360.0,17360.0,1,1,17355,60,17360,105
2016-10-25 12:56:00,12:56:00,12:56:00,0,0,0.0,0,0.0,0,17360.0,17360.0,17360.0,17360.0,0,0,0,0,0,0
2016-10-25 12:57:00,12:57:00,12:57:00,0,0,0.0,0,0.0,0,17360.0,17360.0,17360.0,17360.0,0,0,0,0,0,0
2016-10-25 12:58:00,12:58:00,12:58:00,27529,27529,17355.0,54,17360.0,79,17360.0,17360.0,17360.0,17360.0,1,1,17355,53,17360,77
2016-10-25 12:59:00,12:59:02,12:59:36,27552,27566,17355.0,63,17360.0,74,17355.0,17355.0,17355.0,17355.0,3,-3,17355,64,17360,73
2016-10-25 13:00:00,13:00:00,13:00:56,27576,27653,17355.0,64,17360.0,73,17360.0,17365.0,17360.0,17365.0,110,108,17360,59,17365,42
2016-10-25 13:01:00,13:01:02,13:01:05,27663,27666,17360.0,68,17365.0,42,17365.0,17365.0,17365.0,17365.0,4,4,17360,69,17365,38
2016-10-25 13:02:00,13:02:23,13:02:23,27717,27754,17360.0,75,17365.0,50,17365.0,17365.0,17365.0,17365.0,55,55,17360,86,17365,13
2016-10-25 13:03:00,13:03:32,13:03:32,27789,27789,17360.0,91,17365.0,23,17365.0,17365.0,17365.0,17365.0,1,1,17360,90,17365,20
2016-10-25 13:04:00,13:04:04,13:04:56,27808,27913,17360.0,85,17365.0,69,17365.0,17365.0,17360.0,17360.0,128,-118,17355,67,17365,90
2016-10-25 13:05:00,13:05:01,13:05:01,27919,27919,17355.0,62,17360.0,19,17360.0,17360.0,17360.0,17360.0,1,1,17355,47,17360,18
2016-10-25 13:06:00,13:06:08,13:06:41,27968,28032,17355.0,35,17360.0,58,17355.0,17360.0,17355.0,17360.0,53,-51,17355,28,17360,62
2016-10-25 13:07:00,13:07:27,13:07:55,28073,28149,17355.0,50,17360.0,62,17360.0,17360.0,17360.0,17360.0,128,128,17360,40,17365,74
2016-10-25 13:08:00,13:08:01,13:08:38,28159,28202,17360.0,17,17365.0,73,17360.0,17360.0,17360.0,17360.0,40,28,17360,37,17365,65
2016-10-25 13:09:00,13:09:00,13:09:00,0,0,0.0,0,0.0,0,17360.0,17360.0,17360.0,17360.0,0,0,0,0,0,0
2016-10-25 13:10:00,13:10:09,13:10:59,28265,28357,17360.0,65,17365.0,66,17365.0,17365.0,17365.0,17365.0,137,120,17360,74,17365,30
2016-10-25 13:11:00,13:11:00,13:11:00,0,0,0.0,0,0.0,0,17365.0,17365.0,17365.0,17365.0,0,0,0,0,0,0
2016-10-25 13:12:00,13:12:03,13:12:56,28413,28465,17360.0,56,17365.0,56,17365.0,17365.0,17365.0,17365.0,40,40,17360,62,17365,15
2016-10-25 13:13:00,13:13:06,13:13:43,28471,28487,17360.0,63,17365.0,33,17360.0,17365.0,17360.0,17365.0,16,6,17360,55,17365,36
2016-10-25 13:14:00,13:14:31,13:14:58,28520,28587,17360.0,52,17365.0,66,17360.0,17360.0,17355.0,17360.0,95,-89,17350,80,17360,57
2016-10-25 13:15:00,13:15:02,13:15:46,28589,28674,17355.0,43,17360.0,57,17355.0,17355.0,17350.0,17355.0,99,21,17355,21,17360,53
2016-10-25 13:16:00,13:16:04,13:16:45,28693,28790,17355.0,102,17360.0,53,17360.0,17360.0,17360.0,17360.0,113,89,17360,70,17365,77
2016-10-25 13:17:00,13:17:48,13:17:48,28836,28836,17360.0,93,17365.0,66,17360.0,17360.0,17360.0,17360.0,1,-1,17360,91,17365,65
2016-10-25 13:18:00,13:18:07,13:18:21,28852,28883,17360.0,89,17365.0,67,17365.0,17365.0,17365.0,17365.0,36,36,17360,90,17365,62
2016-10-25 13:19:00,13:19:04,13:19:45,28924,28999,17360.0,103,17365.0,44,17365.0,17365.0,17365.0,17365.0,61,11,17360,112,17365,27
2016-10-25 13:20:00,13:20:21,13:20:22,29016,29019,17360.0,100,17365.0,50,17365.0,17365.0,17365.0,17365.0,5,5,17360,99,17365,44
2016-10-25 13:21:00,13:21:34,13:21:54,29036,29039,17360.0,120,17365.0,63,17360.0,17360.0,17360.0,17360.0,2,-2,17360,117,17365,67
2016-10-25 13:22:00,13:22:38,13:22:55,29059,29076,17360.0,121,17365.0,66,17365.0,17365.0,17365.0,17365.0,3,3,17360,124,17365,65
2016-10-25 13:23:00,13:23:02,13:23:58,29084,29219,17360.0,126,17365.0,65,17365.0,17365.0,17355.0,17360.0,290,-4,17360,8,17365,55
2016-10-25 13:24:00,13:24:00,13:24:00,0,0,0.0,0,0.0,0,17360.0,17360.0,17360.0,17360.0,0,0,0,0,0,0
2016-10-25 13:25:00,13:25:10,13:25:54,29264,29412,17360.0,54,17365.0,63,17365.0,17365.0,17365.0,17365.0,137,93,17360,79,17365,14
2016-10-25 13:26:00,13:26:06,13:26:39,29422,29502,17360.0,80,17365.0,24,17365.0,17370.0,17365.0,17365.0,58,12,17360,83,17370,80
2016-10-25 13:27:00,13:27:02,13:27:18,29513,29595,17365.0,9,17370.0,80,17365.0,17365.0,17360.0,17360.0,130,-56,17355,43,17360,61
2016-10-25 13:28:00,13:28:25,13:28:44,29649,29697,17355.0,69,17360.0,36,17360.0,17360.0,17355.0,17355.0,47,41,17355,62,17360,36
2016-10-25 13:29:00,13:29:14,13:29:47,29722,29768,17355.0,60,17360.0,40,17355.0,17365.0,17355.0,17365.0,24,22,17360,86,17365,50
2016-10-25 13:30:00,13:30:07,13:30:35,29781,29850,17360.0,91,17365.0,46,17365.0,17365.0,17360.0,17360.0,99,-17,17355,57,17360,6
2016-10-25 13:31:00,13:31:11,13:31:58,29881,29944,17355.0,52,17360.0,35,17355.0,17360.0,17355.0,17355.0,48,-36,17355,41,17360,58
2016-10-25 13:32:00,13:32:32,13:32:57,29970,30073,17355.0,55,17360.0,47,17355.0,17360.0,17355.0,17360.0,145,35,17355,61,17360,9
2016-10-25 13:33:00,13:33:05,13:33:59,30083,30285,17355.0,70,17360.0,7,17360.0,17370.0,17360.0,17365.0,291,-17,17365,19,17370,60
2016-10-25 13:34:00,13:34:00,13:34:33,30292,30320,17365.0,16,17370.0,60,17365.0,17365.0,17365.0,17365.0,12,-12,17365,25,17370,66
2016-10-25 13:35:00,13:35:11,13:35:57,30340,30447,17365.0,34,17370.0,64,17370.0,17370.0,17365.0,17370.0,116,-6,17365,41,17370,47
2016-10-25 13:36:00,13:36:09,13:36:56,30457,30575,17365.0,60,17370.0,41,17370.0,17375.0,17370.0,17375.0,71,11,17370,9,17375,74
2016-10-25 13:37:00,13:37:05,13:37:55,30580,30661,17370.0,12,17375.0,74,17370.0,17370.0,17365.0,17365.0,59,1,17365,83,17370,18
2016-10-25 13:38:00,13:38:05,13:38:55,30668,30712,17365.0,87,17370.0,32,17365.0,17370.0,17365.0,17365.0,6,0,17365,85,17370,29
2016-10-25 13:39:00,13:39:12,13:39:52,30721,30773,17365.0,79,17370.0,36,17370.0,17370.0,17365.0,17370.0,40,16,17365,80,17370,3
2016-10-25 13:40:00,13:40:00,13:40:53,30782,30857,17365.0,79,17370.0,15,17370.0,17370.0,17365.0,17370.0,17,15,17365,87,17370,37
2016-10-25 13:41:00,13:41:26,13:41:31,30881,30899,17365.0,87,17370.0,36,17370.0,17375.0,17370.0,17375.0,33,33,17370,68,17375,72
2016-10-25 13:42:00,13:42:09,13:42:47,30941,31009,17370.0,89,17375.0,73,17375.0,17375.0,17370.0,17375.0,60,58,17370,63,17375,36
2016-10-25 13:43:00,13:43:00,13:43:42,31021,31113,17370.0,62,17375.0,44,17370.0,17375.0,17370.0,17370.0,98,-30,17365,121,17370,49
2016-10-25 13:44:00,13:44:21,13:44:55,31132,31216,17365.0,122,17370.0,57,17370.0,17370.0,17370.0,17370.0,112,112,17365,137,17370,23
2016-10-25 13:45:00,13:45:06,13:45:59,31233,31401,17365.0,140,17370.0,38,17370.0,17375.0,17370.0,17370.0,191,-65,17370,3,17370,26
2016-10-25 13:46:00,13:46:01,13:46:09,31404,31422,17370.0,4,17375.0,126,17370.0,17370.0,17370.0,17370.0,12,-6,17365,134,17370,13
2016-10-25 13:47:00,13:47:04,13:47:58,31477,31587,17365.0,133,17370.0,68,17365.0,17370.0,17365.0,17370.0,130,92,17370,70,17375,168
2016-10-25 13:48:00,13:48:24,13:48:24,31601,31602,17370.0,72,17375.0,171,17375.0,17375.0,17375.0,17375.0,4,4,17370,64,17375,167
2016-10-25 13:49:00,13:49:00,13:49:44,31615,31662,17370.0,64,17375.0,169,17370.0,17375.0,17370.0,17375.0,8,0,17370,95,17375,142
2016-10-25 13:50:00,13:50:00,13:50:59,31678,31836,17370.0,100,17375.0,140,17375.0,17380.0,17375.0,17380.0,205,101,17375,54,17380,98
2016-10-25 13:51:00,13:51:07,13:51:54,31848,31977,17375.0,63,17380.0,102,17380.0,17380.0,17370.0,17370.0,131,-79,17370,47,17375,88
2016-10-25 13:52:00,13:52:03,13:52:55,31990,32046,17370.0,53,17375.0,87,17370.0,17375.0,17370.0,17370.0,16,2,17370,91,17375,98
2016-10-25 13:53:00,13:53:02,13:53:41,32059,32099,17370.0,87,17375.0,94,17375.0,17375.0,17370.0,17375.0,16,14,17370,95,17375,76
2016-10-25 13:54:00,13:54:03,13:54:59,32131,32213,17370.0,96,17375.0,90,17375.0,17375.0,17370.0,17370.0,80,74,17370,117,17375,60
2016-10-25 13:55:00,13:55:00,13:55:55,32218,32320,17370.0,123,17375.0,59,17375.0,17375.0,17370.0,17370.0,59,55,17370,97,17375,108
2016-10-25 13:56:00,13:56:20,13:56:50,32342,32426,17370.0,114,17375.0,115,17375.0,17375.0,17370.0,17375.0,49,41,17370,116,17375,75
2016-10-25 13:57:00,13:57:05,13:57:59,32451,32567,17370.0,117,17375.0,80,17375.0,17375.0,17370.0,17370.0,67,35,17370,112,17375,83
2016-10-25 13:58:00,13:58:04,13:58:59,32580,32757,17370.0,114,17375.0,115,17375.0,17375.0,17370.0,17370.0,121,-5,17370,96,17375,102
2016-10-25 13:59:00,13:59:01,13:59:59,32765,33104,17370.0,117,17375.0,121,17370.0,17375.0,17370.0,17370.0,519,275,17370,40,17375,73
2016-10-25 14:00:00,14:00:00,14:00:59,33107,33629,17370.0,40,17375.0,73,17375.0,17375.0,17365.0,17370.0,969,-173,17365,173,17370,98
2016-10-25 14:01:00,14:01:00,14:01:56,33631,33718,17365.0,171,17370.0,98,17370.0,17370.0,17365.0,17370.0,143,83,17365,205,17370,99
2016-10-25 14:02:00,14:02:00,14:02:45,33722,33847,17365.0,205,17370.0,123,17370.0,17375.0,17370.0,17375.0,181,149,17370,95,17375,208
2016-10-25 14:03:00,14:03:00,14:03:58,33862,33992,17370.0,99,17375.0,207,17375.0,17375.0,17370.0,17370.0,173,-89,17370,76,17375,266
2016-10-25 14:04:00,14:04:00,14:04:59,33995,34176,17370.0,76,17375.0,266,17375.0,17375.0,17365.0,17370.0,356,-128,17370,48,17375,225
2016-10-25 14:05:00,14:05:00,14:05:40,34181,34334,17370.0,54,17375.0,227,17370.0,17375.0,17365.0,17365.0,181,-35,17365,125,17370,237
2016-10-25 14:06:00,14:06:03,14:06:29,34350,34391,17365.0,116,17370.0,235,17365.0,17370.0,17365.0,17365.0,57,-37,17365,110,17370,231
2016-10-25 14:07:00,14:07:05,14:07:59,34411,34519,17365.0,111,17370.0,231,17365.0,17370.0,17365.0,17365.0,230,58,17365,196,17370,96
2016-10-25 14:08:00,14:08:00,14:08:59,34526,34737,17365.0,207,17370.0,65,17370.0,17370.0,17365.0,17370.0,301,167,17365,160,17370,46
