,ST,ET,sidx,eidx,bB,bBS,bA,bAS,O,H,L,C,V,OF,eB,eBS,eA,eAS
2016-08-01 08:00:00,08:00:00,08:00:59,2629,3516,16350.0,50,16355.0,12,16355.0,16365.0,16325.0,16340.0,1161,57,16340,6,16345,23
2016-08-01 08:01:00,08:01:04,08:01:54,3529,4008,16340.0,14,16345.0,25,16340.0,16345.0,16325.0,16335.0,534,152,16335,32,16340,20
2016-08-01 08:02:00,08:02:00,08:02:57,4023,4378,16335.0,29,16340.0,31,16335.0,16345.0,16325.0,16340.0,371,56,16340,5,16345,18
2016-08-01 08:03:00,08:03:00,08:03:58,4387,4814,16340.0,18,16345.0,19,16345.0,16350.0,16335.0,16335.0,423,113,16330,32,16335,15
2016-08-01 08:04:00,08:04:01,08:04:55,4822,5185,16330.0,36,16335.0,21,16335.0,16345.0,16325.0,16340.0,347,145,16335,25,16340,5
2016-08-01 08:05:00,08:05:00,08:05:56,5192,5413,16335.0,25,16340.0,6,16340.0,16345.0,16335.0,16335.0,175,-37,16330,33,16335,12
2016-08-01 08:06:00,08:06:00,08:06:58,5425,5681,16330.0,37,16335.0,15,16335.0,16340.0,16325.0,16325.0,201,71,16325,33,16330,6
2016-08-01 08:07:00,08:07:01,08:07:57,5686,5921,16325.0,23,16330.0,7,16330.0,16330.0,16320.0,16330.0,157,-31,16325,19,16330,32
2016-08-01 08:08:00,08:08:00,08:08:53,5928,6153,16325.0,21,16330.0,33,16330.0,16330.0,16315.0,16320.0,173,-65,16315,3,16320,56
2016-08-01 08:09:00,08:09:02,08:09:59,6171,6358,16315.0,25,16320.0,55,16315.0,16325.0,16315.0,16320.0,159,37,16315,18,16320,40
2016-08-01 08:10:00,08:10:00,08:10:58,6361,6736,16315.0,18,16320.0,40,16320.0,16320.0,16305.0,16305.0,323,-39,16305,15,16310,31
2016-08-01 08:11:00,08:11:00,08:11:57,6740,6931,16305.0,15,16310.0,34,16310.0,16310.0,16305.0,16305.0,175,37,16305,6,16310,33
2016-08-01 08:12:00,08:12:02,08:12:57,6939,7122,16305.0,16,16310.0,38,16305.0,16315.0,16305.0,16310.0,131,63,16310,8,16315,40
2016-08-01 08:13:00,08:13:00,08:13:44,7130,7403,16310.0,12,16315.0,40,16315.0,16330.0,16310.0,16330.0,249,182,16325,33,16335,27
2016-08-01 08:14:00,08:14:00,08:14:59,7432,7677,16330.0,19,16335.0,36,16330.0,16345.0,16325.0,16345.0,198,74,16340,19,16350,29
2016-08-01 08:15:00,08:15:01,08:15:55,7685,8265,16340.0,19,16345.0,28,16340.0,16375.0,16335.0,16370.0,596,335,16365,21,16370,18
2016-08-01 08:16:00,08:16:01,08:16:59,8276,8480,16365.0,20,16370.0,24,16370.0,16370.0,16360.0,16365.0,169,72,16365,9,16370,33
2016-08-01 08:17:00,08:17:01,08:17:58,8484,8786,16365.0,25,16370.0,33,16370.0,16385.0,16360.0,16380.0,295,231,16375,44,16385,46
2016-08-01 08:18:00,08:18:00,08:18:57,8795,9024,16380.0,11,16385.0,36,16380.0,16385.0,16370.0,16375.0,200,-14,16370,45,16375,22
2016-08-01 08:19:00,08:19:00,08:19:59,9029,9351,16370.0,45,16375.0,30,16370.0,16370.0,16360.0,16365.0,349,-34,16365,5,16370,35
2016-08-01 08:20:00,08:20:00,08:20:56,9354,9589,16365.0,5,16370.0,35,16365.0,16370.0,16360.0,16360.0,200,-46,16360,19,16365,26
2016-08-01 08:21:00,08:21:03,08:21:52,9603,9844,16360.0,27,16365.0,10,16365.0,16380.0,16365.0,16380.0,247,88,16375,41,16385,38
2016-08-01 08:22:00,08:22:01,08:22:46,9860,10057,16380.0,20,16385.0,28,16385.0,16390.0,16385.0,16385.0,168,136,16380,27,16385,10
2016-08-01 08:23:00,08:23:06,08:23:58,10090,10220,16380.0,24,16385.0,23,16385.0,16385.0,16370.0,16375.0,55,-49,16370,21,16375,26
2016-08-01 08:24:00,08:24:01,08:24:58,10228,10396,16370.0,22,16375.0,33,16370.0,16370.0,16365.0,16370.0,108,4,16370,36,16375,22
2016-08-01 08:25:00,08:25:01,08:25:59,10403,10609,16370.0,30,16375.0,28,16370.0,16370.0,16350.0,16350.0,148,9,16350,24,16355,30
2016-08-01 08:26:00,08:26:04,08:26:35,10616,10791,16350.0,22,16355.0,31,16350.0,16360.0,16345.0,16360.0,150,-20,16355,26,16360,20
2016-08-01 08:27:00,08:27:03,08:27:57,10805,10972,16355.0,24,16360.0,33,16355.0,16365.0,16355.0,16360.0,145,100,16360,15,16365,29
2016-08-01 08:28:00,08:28:02,08:28:59,10981,11164,16360.0,12,16365.0,36,16360.0,16365.0,16355.0,16365.0,151,33,16360,33,16365,2
2016-08-01 08:29:00,08:29:02,08:29:58,11170,11330,16360.0,33,16370.0,47,16365.0,16380.0,16365.0,16370.0,82,35,16370,35,16375,15
2016-08-01 08:30:00,08:30:00,08:30:55,11338,11499,16370.0,31,16375.0,25,16370.0,16375.0,16365.0,16370.0,114,-33,16365,16,16370,17
2016-08-01 08:31:00,08:31:19,08:31:57,11531,11668,16365.0,22,16370.0,25,16365.0,16375.0,16365.0,16365.0,97,29,16365,11,16370,32
2016-08-01 08:32:00,08:32:02,08:32:58,11679,11832,16365.0,15,16370.0,25,16370.0,16370.0,16365.0,16370.0,131,5,16370,24,16375,16
2016-08-01 08:33:00,08:33:16,08:33:46,11845,11885,16370.0,27,16375.0,16,16370.0,16375.0,16370.0,16375.0,30,14,16375,18,16380,18
2016-08-01 08:34:00,08:34:02,08:34:51,11906,12005,16375.0,14,16380.0,21,16375.0,16375.0,16370.0,16375.0,90,-66,16375,19,16380,21
2016-08-01 08:35:00,08:35:00,08:35:53,12008,12156,16375.0,19,16380.0,21,16380.0,16380.0,16365.0,16365.0,127,-90,16360,49,16365,12
2016-08-01 08:36:00,08:36:07,08:36:59,12172,12295,16360.0,52,16365.0,12,16365.0,16375.0,16365.0,16375.0,89,21,16370,23,16375,9
2016-08-01 08:37:00,08:37:01,08:37:54,12301,12538,16370.0,24,16375.0,9,16375.0,16380.0,16360.0,16365.0,211,-118,16360,47,16365,1
2016-08-01 08:38:00,08:38:02,08:38:56,12555,12712,16360.0,40,16365.0,28,16360.0,16365.0,16355.0,16360.0,151,27,16360,11,16365,47
2016-08-01 08:39:00,08:39:20,08:39:55,12723,12909,16360.0,38,16365.0,32,16365.0,16375.0,16365.0,16375.0,228,85,16370,42,16380,33
2016-08-01 08:40:00,08:40:01,08:40:46,12921,13153,16370.0,28,16375.0,25,16375.0,16390.0,16370.0,16385.0,264,125,16385,20,16390,21
2016-08-01 08:41:00,08:41:01,08:41:52,13171,13368,16385.0,31,16390.0,15,16390.0,16395.0,16380.0,16385.0,191,-38,16385,38,16390,13
2016-08-01 08:42:00,08:42:03,08:42:48,13384,13689,16385.0,16,16390.0,28,16390.0,16425.0,16390.0,16415.0,368,136,16415,35,16420,17
2016-08-01 08:43:00,08:43:02,08:43:57,13721,14198,16415.0,31,16420.0,14,16420.0,16440.0,16400.0,16435.0,623,167,16435,5,16440,27
2016-08-01 08:44:00,08:44:00,08:44:55,14207,14437,16435.0,12,16440.0,24,16435.0,16440.0,16420.0,16430.0,236,17,16430,12,16435,23
2016-08-01 08:45:00,08:45:00,08:45:59,14446,14612,16430.0,30,16435.0,16,16435.0,16435.0,16420.0,16420.0,98,-28,16420,1,16425,32
2016-08-01 08:46:00,08:46:00,08:46:59,14613,14848,16420.0,2,16425.0,34,16420.0,16435.0,16415.0,16415.0,258,-26,16415,31,16425,30
2016-08-01 08:47:00,08:47:00,08:47:55,14851,15276,16415.0,31,16425.0,30,16420.0,16445.0,16415.0,16430.0,442,166,16430,29,16435,12
2016-08-01 08:48:00,08:48:01,08:48:52,15290,15540,16430.0,20,16435.0,31,16430.0,16445.0,16430.0,16445.0,269,58,16440,31,16445,18
2016-08-01 08:49:00,08:49:04,08:49:58,15562,15844,16440.0,25,16445.0,26,16445.0,16475.0,16445.0,16475.0,289,205,16470,40,16475,6
2016-08-01 08:50:00,08:50:03,08:50:55,15860,16017,16470.0,40,16475.0,23,16470.0,16475.0,16455.0,16455.0,111,-65,16455,25,16460,43
2016-08-01 08:51:00,08:51:00,08:51:54,16028,16243,16455.0,20,16460.0,52,16455.0,16455.0,16450.0,16455.0,284,-188,16455,34,16460,40
2016-08-01 08:52:00,08:52:12,08:52:58,16260,16530,16455.0,35,16460.0,70,16455.0,16455.0,16435.0,16445.0,281,-136,16445,28,16450,25
2016-08-01 08:53:00,08:53:02,08:53:59,16541,16698,16445.0,11,16450.0,33,16445.0,16460.0,16440.0,16450.0,121,8,16450,3,16455,34
2016-08-01 08:54:00,08:54:00,08:54:55,16701,16872,16450.0,3,16455.0,34,16450.0,16450.0,16440.0,16440.0,95,-10,16435,35,16440,14
2016-08-01 08:55:00,08:55:00,08:55:59,16889,17124,16435.0,34,16440.0,24,16440.0,16445.0,16435.0,16435.0,200,0,16435,15,16440,31
2016-08-01 08:56:00,08:56:03,08:56:58,17132,17518,16435.0,13,16440.0,30,16435.0,16450.0,16430.0,16445.0,466,61,16445,4,16450,40
2016-08-01 08:57:00,08:57:06,08:57:54,17526,17715,16445.0,28,16450.0,41,16445.0,16455.0,16445.0,16450.0,160,24,16450,13,16455,23
2016-08-01 08:58:00,08:58:02,08:58:52,17727,17913,16450.0,14,16455.0,30,16450.0,16465.0,16450.0,16455.0,160,86,16455,78,16460,26
2016-08-01 08:59:00,08:59:00,08:59:58,17920,18035,16455.0,77,16460.0,27,16455.0,16460.0,16455.0,16455.0,100,-84,16455,12,16460,31
2016-08-01 09:00:00,09:00:01,09:00:51,18043,18300,16455.0,9,16460.0,33,16455.0,16460.0,16440.0,16450.0,305,-131,16445,47,16450,20
2016-08-01 09:01:00,09:01:07,09:01:37,18327,18463,16445.0,51,16450.0,39,16445.0,16445.0,16445.0,16445.0,176,-150,16440,30,16445,3
2016-08-01 09:02:00,09:02:00,09:02:59,18494,18683,16440.0,20,16445.0,29,16440.0,16445.0,16435.0,16445.0,161,-15,16445,23,16450,28
2016-08-01 09:03:00,09:03:04,09:03:49,18693,18829,16445.0,19,16450.0,27,16445.0,16455.0,16445.0,16455.0,98,22,16450,32,16455,13
2016-08-01 09:04:00,09:04:01,09:04:55,18849,19081,16450.0,34,16455.0,18,16450.0,16455.0,16440.0,16455.0,195,75,16450,30,16460,32
2016-08-01 09:05:00,09:05:00,09:05:14,19087,19126,16450.0,30,16455.0,5,16455.0,16455.0,16450.0,16455.0,15,11,16455,13,16460,20
2016-08-01 09:06:00,09:06:00,09:06:50,19154,19318,16455.0,19,16460.0,22,16460.0,16470.0,16460.0,16470.0,131,55,16465,20,16470,23
2016-08-01 09:07:00,09:07:00,09:07:57,19326,19414,16465.0,26,16470.0,24,16470.0,16470.0,16465.0,16465.0,33,29,16465,16,16470,24
2016-08-01 09:08:00,09:08:00,09:08:56,19416,19836,16465.0,16,16470.0,22,16470.0,16495.0,16470.0,16485.0,562,271,16485,54,16490,36
2016-08-01 09:09:00,09:09:00,09:09:51,19845,19948,16485.0,38,16490.0,32,16485.0,16490.0,16485.0,16490.0,39,31,16485,35,16490,18
2016-08-01 09:10:00,09:10:01,09:10:51,19962,20167,16485.0,36,16490.0,17,16490.0,16495.0,16485.0,16490.0,173,35,16485,18,16490,22
2016-08-01 09:11:00,09:11:01,09:11:54,20182,20324,16485.0,15,16490.0,32,16490.0,16490.0,16485.0,16485.0,135,63,16485,1,16490,31
2016-08-01 09:12:00,09:12:01,09:12:52,20334,20500,16485.0,12,16490.0,29,16490.0,16490.0,16475.0,16475.0,105,-53,16470,18,16475,23
2016-08-01 09:13:00,09:13:01,09:13:52,20515,20660,16470.0,19,16475.0,20,16475.0,16485.0,16475.0,16480.0,88,57,16475,26,16480,11
2016-08-01 09:14:00,09:14:01,09:14:59,20671,20799,16475.0,30,16480.0,14,16480.0,16480.0,16475.0,16480.0,78,-4,16475,36,16480,8
2016-08-01 09:15:00,09:15:00,09:15:54,20804,21023,16475.0,32,16480.0,10,16480.0,16495.0,16480.0,16490.0,180,82,16485,33,16490,6
2016-08-01 09:16:00,09:16:01,09:16:59,21039,21268,16485.0,5,16490.0,27,16485.0,16490.0,16480.0,16490.0,170,-22,16490,4,16495,29
2016-08-01 09:17:00,09:17:01,09:17:59,21274,21490,16490.0,9,16495.0,28,16490.0,16495.0,16485.0,16495.0,151,27,16490,18,16495,42
2016-08-01 09:18:00,09:18:01,09:18:59,21499,21865,16490.0,13,16495.0,47,16490.0,16525.0,16490.0,16520.0,568,429,16515,29,16520,28
2016-08-01 09:19:00,09:19:00,09:19:57,21868,22734,16515.0,29,16520.0,28,16520.0,16560.0,16515.0,16545.0,1363,756,16540,138,16545,17
2016-08-01 09:20:00,09:20:00,09:20:56,22741,23042,16540.0,139,16545.0,19,16540.0,16545.0,16530.0,16535.0,314,-120,16535,14,16540,32
2016-08-01 09:21:00,09:21:02,09:21:59,23057,23235,16535.0,29,16540.0,30,16535.0,16540.0,16530.0,16535.0,122,-44,16530,47,16535,4
2016-08-01 09:22:00,09:22:00,09:22:58,23238,23480,16530.0,47,16535.0,4,16535.0,16540.0,16525.0,16535.0,204,36,16530,43,16540,33
2016-08-01 09:23:00,09:23:00,09:23:52,23489,23612,16535.0,8,16540.0,33,16535.0,16540.0,16535.0,16535.0,60,-5,16530,44,16540,33
2016-08-01 09:24:00,09:24:02,09:24:54,23629,23789,16530.0,21,16535.0,28,16535.0,16535.0,16525.0,16530.0,89,5,16530,26,16535,16
2016-08-01 09:25:00,09:25:03,09:25:59,23797,24017,16530.0,29,16535.0,13,16535.0,16540.0,16530.0,16530.0,239,-75,16530,31,16535,16
2016-08-01 09:26:00,09:26:02,09:26:57,24023,24258,16530.0,33,16535.0,9,16530.0,16535.0,16525.0,16530.0,202,-98,16530,21,16535,20
2016-08-01 09:27:00,09:27:12,09:27:47,24283,24502,16530.0,40,16535.0,43,16535.0,16555.0,16535.0,16550.0,262,181,16550,23,16555,33
2016-08-01 09:28:00,09:28:02,09:28:57,24531,24826,16550.0,41,16555.0,34,16555.0,16565.0,16550.0,16555.0,291,43,16550,9,16555,28
2016-08-01 09:29:00,09:29:01,09:29:59,24836,25109,16550.0,11,16555.0,22,16550.0,16570.0,16545.0,16565.0,282,-23,16560,46,16570,28
2016-08-01 09:30:00,09:30:00,09:30:58,25112,25440,16560.0,46,16570.0,28,16565.0,16570.0,16550.0,16550.0,302,-78,16550,18,16555,21
2016-08-01 09:31:00,09:31:03,09:31:57,25452,25637,16550.0,15,16555.0,36,16550.0,16555.0,16545.0,16550.0,155,24,16545,29,16550,4
2016-08-01 09:32:00,09:32:10,09:32:47,25649,25738,16545.0,30,16550.0,3,16550.0,16555.0,16550.0,16550.0,69,31,16550,15,16555,29
2016-08-01 09:33:00,09:33:12,09:33:59,25777,25872,16550.0,13,16555.0,29,16555.0,16555.0,16550.0,16555.0,35,33,16550,33,16555,6
2016-08-01 09:34:00,09:34:06,09:34:59,25888,26001,16550.0,12,16555.0,28,16550.0,16555.0,16545.0,16550.0,55,14,16545,41,16550,1
2016-08-01 09:35:00,09:35:00,09:35:57,26002,26226,16545.0,39,16550.0,8,16550.0,16555.0,16545.0,16545.0,192,-94,16545,16,16550,35
2016-08-01 09:36:00,09:36:03,09:36:59,26236,26433,16545.0,33,16550.0,34,16550.0,16550.0,16530.0,16540.0,212,-94,16540,9,16545,36
2016-08-01 09:37:00,09:37:00,09:37:55,26436,26504,16540.0,9,16545.0,36,16540.0,16545.0,16540.0,16540.0,26,-22,16535,18,16540,35
2016-08-01 09:38:00,09:38:00,09:38:00,26510,26529,16535.0,21,16540.0,34,16540.0,16540.0,16540.0,16540.0,28,28,16540,17,16545,27
2016-08-01 09:39:00,09:39:09,09:39:54,26584,26724,16540.0,34,16545.0,33,16540.0,16550.0,16540.0,16550.0,112,62,16545,32,16550,6
2016-08-01 09:40:00,09:40:00,09:40:55,26733,26934,16545.0,35,16550.0,5,16550.0,16565.0,16550.0,16555.0,140,1,16550,35,16560,26
2016-08-01 09:41:00,09:41:00,09:41:57,26943,27173,16555.0,13,16560.0,27,16555.0,16555.0,16545.0,16550.0,178,-29,16545,19,16550,13
2016-08-01 09:42:00,09:42:04,09:42:49,27186,27303,16545.0,27,16550.0,17,16545.0,16555.0,16545.0,16550.0,113,41,16550,20,16555,22
2016-08-01 09:43:00,09:43:16,09:43:50,27322,27398,16550.0,14,16555.0,23,16555.0,16555.0,16545.0,16545.0,39,-4,16545,14,16550,14
2016-08-01 09:44:00,09:44:06,09:44:58,27412,27526,16545.0,7,16550.0,22,16545.0,16550.0,16535.0,16540.0,66,1,16540,1,16545,14
2016-08-01 09:45:00,09:45:00,09:45:53,27530,27840,16540.0,2,16545.0,14,16545.0,16560.0,16540.0,16550.0,291,32,16545,24,16550,11
2016-08-01 09:46:00,09:46:05,09:46:57,27863,28015,16550.0,24,16555.0,24,16550.0,16550.0,16540.0,16545.0,70,-19,16545,11,16550,31
2016-08-01 09:47:00,09:47:00,09:47:47,28024,28188,16540.0,37,16550.0,35,16545.0,16545.0,16535.0,16545.0,97,0,16545,3,16550,36
2016-08-01 09:48:00,09:48:02,09:48:47,28211,28321,16545.0,31,16550.0,20,16545.0,16550.0,16545.0,16550.0,52,-22,16545,16,16550,24
2016-08-01 09:49:00,09:49:06,09:49:46,28337,28454,16545.0,29,16550.0,20,16550.0,16555.0,16545.0,16545.0,85,5,16540,32,16545,8
2016-08-01 09:50:00,09:50:01,09:50:57,28474,28600,16540.0,38,16545.0,14,16545.0,16555.0,16545.0,16545.0,95,-17,16540,27,16545,24
2016-08-01 09:51:00,09:51:03,09:51:56,28612,28740,16540.0,28,16545.0,20,16540.0,16545.0,16540.0,16540.0,158,-50,16540,10,16545,28
2016-08-01 09:52:00,09:52:05,09:52:51,28750,28842,16540.0,4,16545.0,27,16540.0,16545.0,16540.0,16545.0,46,6,16540,49,16550,37
2016-08-01 09:53:00,09:53:31,09:53:57,28878,28949,16540.0,24,16545.0,28,16545.0,16550.0,16545.0,16550.0,72,70,16545,35,16550,17
2016-08-01 09:54:00,09:54:14,09:54:58,28967,29151,16545.0,22,16550.0,25,16545.0,16545.0,16535.0,16545.0,199,-66,16545,13,16550,31
2016-08-01 09:55:00,09:55:12,09:55:57,29170,29319,16545.0,26,16550.0,25,16545.0,16560.0,16545.0,16550.0,141,-7,16545,52,16550,9
2016-08-01 09:56:00,09:56:12,09:56:41,29342,29498,16545.0,45,16550.0,31,16545.0,16550.0,16545.0,16550.0,166,-71,16545,29,16550,20
2016-08-01 09:57:00,09:57:40,09:57:58,29551,29593,16545.0,31,16550.0,50,16550.0,16555.0,16550.0,16550.0,55,31,16545,29,16550,26
2016-08-01 09:58:00,09:58:03,09:58:53,29602,29736,16545.0,35,16550.0,13,16550.0,16550.0,16545.0,16550.0,87,8,16545,34,16550,4
2016-08-01 09:59:00,09:59:01,09:59:59,29742,29941,16545.0,36,16550.0,8,16550.0,16555.0,16540.0,16540.0,144,-24,16540,23,16545,46
2016-08-01 10:00:00,10:00:01,10:00:40,29945,30048,16540.0,24,16545.0,46,16540.0,16545.0,16540.0,16545.0,89,21,16545,21,16550,41
2016-08-01 10:01:00,10:01:02,10:01:58,30069,30336,16545.0,36,16550.0,35,16550.0,16560.0,16550.0,16555.0,246,-9,16550,42,16555,12
2016-08-01 10:02:00,10:02:02,10:02:58,30347,30521,16555.0,19,16560.0,31,16560.0,16565.0,16555.0,16560.0,95,29,16555,23,16560,29
2016-08-01 10:03:00,10:03:06,10:03:52,30532,30598,16555.0,1,16560.0,34,16555.0,16555.0,16555.0,16555.0,29,-15,16550,53,16560,34
2016-08-01 10:04:00,10:04:14,10:04:59,30619,30680,16555.0,17,16560.0,33,16555.0,16560.0,16555.0,16555.0,24,-16,16550,47,16555,17
2016-08-01 10:05:00,10:05:01,10:05:26,30685,30745,16550.0,43,16555.0,20,16555.0,16560.0,16555.0,16560.0,31,-3,16555,22,16560,23
2016-08-01 10:06:00,10:06:00,10:06:59,30773,30919,16555.0,29,16560.0,35,16560.0,16565.0,16560.0,16565.0,108,91,16560,28,16565,23
2016-08-01 10:07:00,10:07:00,10:07:59,30920,31072,16560.0,27,16565.0,35,16565.0,16570.0,16555.0,16560.0,130,-39,16555,31,16560,19
2016-08-01 10:08:00,10:08:00,10:08:50,31073,31156,16555.0,27,16560.0,31,16560.0,16565.0,16555.0,16560.0,43,37,16555,48,16565,51
2016-08-01 10:09:00,10:09:03,10:09:53,31168,31281,16555.0,29,16560.0,33,16555.0,16555.0,16555.0,16555.0,125,-8,16555,1,16560,46
2016-08-01 10:10:00,10:10:00,10:10:33,31288,31366,16555.0,2,16560.0,50,16560.0,16560.0,16555.0,16555.0,66,32,16555,8,16560,38
2016-08-01 10:11:00,10:11:05,10:11:48,31402,31553,16555.0,18,16560.0,31,16560.0,16560.0,16550.0,16550.0,165,-19,16550,23,16555,22
2016-08-01 10:12:00,10:12:00,10:12:39,31575,31678,16550.0,27,16555.0,30,16550.0,16555.0,16550.0,16550.0,116,-52,16545,41,16550,5
2016-08-01 10:13:00,10:13:00,10:13:55,31696,31812,16545.0,37,16550.0,19,16550.0,16555.0,16550.0,16550.0,80,-30,16545,39,16555,45
2016-08-01 10:14:00,10:14:25,10:14:58,31846,31936,16545.0,35,16550.0,17,16545.0,16545.0,16545.0,16545.0,61,-41,16545,28,16550,56
2016-08-01 10:15:00,10:15:03,10:15:53,31943,32080,16545.0,23,16550.0,58,16545.0,16555.0,16545.0,16550.0,139,51,16545,37,16550,19
2016-08-01 10:16:00,10:16:06,10:16:52,32098,32238,16545.0,38,16550.0,28,16545.0,16565.0,16545.0,16560.0,113,41,16560,9,16565,38
2016-08-01 10:17:00,10:17:13,10:17:58,32258,32355,16560.0,26,16565.0,20,16565.0,16565.0,16560.0,16565.0,67,8,16565,19,16570,18
2016-08-01 10:18:00,10:18:00,10:18:59,32356,32687,16565.0,2,16570.0,37,16570.0,16590.0,16560.0,16585.0,517,427,16580,36,16585,21
2016-08-01 10:19:00,10:19:02,10:19:57,32700,33170,16580.0,34,16585.0,17,16585.0,16595.0,16585.0,16590.0,609,362,16585,85,16590,5
2016-08-01 10:20:00,10:20:00,10:20:59,33178,33325,16585.0,94,16590.0,8,16590.0,16590.0,16585.0,16585.0,176,-54,16580,49,16585,7
2016-08-01 10:21:00,10:21:00,10:21:53,33327,33678,16580.0,49,16590.0,42,16585.0,16605.0,16585.0,16600.0,504,344,16595,34,16600,26
2016-08-01 10:22:00,10:22:01,10:22:59,33693,33835,16595.0,17,16600.0,32,16595.0,16595.0,16590.0,16595.0,129,-73,16590,44,16600,58
2016-08-01 10:23:00,10:23:00,10:23:58,33839,34109,16590.0,44,16595.0,2,16595.0,16615.0,16595.0,16610.0,251,32,16605,42,16610,1
2016-08-01 10:24:00,10:24:00,10:24:58,34114,34418,16605.0,42,16610.0,2,16610.0,16610.0,16595.0,16605.0,275,-121,16605,9,16610,33
2016-08-01 10:25:00,10:25:05,10:25:58,34435,34606,16605.0,39,16610.0,27,16610.0,16615.0,16605.0,16610.0,126,-16,16610,13,16615,12
2016-08-01 10:26:00,10:26:03,10:26:39,34609,34738,16610.0,15,16615.0,69,16615.0,16615.0,16605.0,16615.0,181,129,16615,23,16620,45
2016-08-01 10:27:00,10:27:05,10:27:59,34764,34955,16615.0,52,16620.0,25,16620.0,16630.0,16615.0,16630.0,239,165,16625,36,16630,12
2016-08-01 10:28:00,10:28:00,10:28:59,34959,35255,16625.0,36,16630.0,6,16630.0,16635.0,16625.0,16625.0,407,148,16625,28,16630,36
2016-08-01 10:29:00,10:29:13,10:29:59,35272,35899,16625.0,30,16630.0,35,16630.0,16655.0,16630.0,16635.0,914,274,16635,6,16640,46
2016-08-01 10:30:00,10:30:00,10:30:59,35902,36197,16635.0,6,16640.0,46,16635.0,16640.0,16620.0,16630.0,246,-63,16625,39,16630,5
2016-08-01 10:31:00,10:31:00,10:31:42,36203,36305,16625.0,40,16635.0,35,16630.0,16635.0,16625.0,16625.0,64,-21,16625,148,16630,21
2016-08-01 10:32:00,10:32:11,10:32:35,36328,36435,16625.0,143,16630.0,14,16625.0,16630.0,16625.0,16630.0,201,-69,16625,33,16630,16
2016-08-01 10:33:00,10:33:14,10:33:57,36472,36535,16625.0,35,16630.0,28,16630.0,16635.0,16630.0,16635.0,46,24,16635,6,16640,30
2016-08-01 10:34:00,10:34:01,10:34:32,36539,36592,16635.0,6,16640.0,29,16635.0,16640.0,16630.0,16635.0,36,-6,16635,16,16640,22
2016-08-01 10:35:00,10:35:02,10:35:46,36619,36686,16635.0,9,16640.0,27,16640.0,16645.0,16640.0,16640.0,47,25,16640,33,16645,26
2016-08-01 10:36:00,10:36:04,10:36:58,36699,36805,16640.0,36,16645.0,24,16645.0,16650.0,16640.0,16650.0,64,35,16645,33,16650,25
2016-08-01 10:37:00,10:37:07,10:37:51,36810,36857,16645.0,37,16650.0,24,16650.0,16650.0,16645.0,16650.0,20,-8,16645,39,16650,15
2016-08-01 10:38:00,10:38:01,10:38:43,36861,36901,16645.0,39,16650.0,16,16650.0,16650.0,16645.0,16645.0,8,0,16645,37,16650,27
2016-08-01 10:39:00,10:39:00,10:39:59,36913,36963,16645.0,36,16650.0,20,16650.0,16650.0,16645.0,16650.0,30,-14,16645,14,16650,26
2016-08-01 10:40:00,10:40:00,10:40:59,36966,37046,16645.0,14,16650.0,26,16650.0,16650.0,16640.0,16640.0,51,-45,16640,9,16645,31
2016-08-01 10:41:00,10:41:12,10:41:54,37060,37115,16640.0,20,16645.0,28,16640.0,16645.0,16635.0,16635.0,36,-20,16630,21,16635,18
2016-08-01 10:42:00,10:42:03,10:42:42,37126,37146,16630.0,23,16635.0,21,16630.0,16630.0,16630.0,16630.0,3,-3,16630,26,16635,22
2016-08-01 10:43:00,10:43:12,10:43:28,37160,37183,16630.0,20,16635.0,24,16630.0,16635.0,16630.0,16630.0,16,-14,16625,24,16630,23
2016-08-01 10:44:00,10:44:03,10:44:44,37218,37300,16625.0,36,16630.0,20,16625.0,16630.0,16625.0,16630.0,79,-5,16625,28,16630,15
2016-08-01 10:45:00,10:45:00,10:45:04,37308,37317,16625.0,31,16630.0,24,16630.0,16630.0,16630.0,16630.0,7,7,16630,35,16635,19
2016-08-01 10:46:00,10:46:06,10:46:58,37361,37561,16630.0,51,16635.0,16,16630.0,16635.0,16625.0,16635.0,239,-105,16630,32,16635,18
2016-08-01 10:47:00,10:47:02,10:47:53,37566,37666,16630.0,32,16635.0,18,16630.0,16645.0,16630.0,16645.0,60,-4,16645,23,16650,19
2016-08-01 10:48:00,10:48:12,10:48:30,37688,37739,16645.0,27,16650.0,28,16645.0,16645.0,16635.0,16635.0,58,-26,16635,30,16640,17
2016-08-01 10:49:00,10:49:02,10:49:39,37761,37783,16635.0,30,16640.0,18,16640.0,16640.0,16635.0,16635.0,3,1,16635,38,16640,20
2016-08-01 10:50:00,10:50:26,10:50:50,37811,37830,16635.0,39,16640.0,25,16635.0,16640.0,16635.0,16640.0,5,3,16635,39,16640,27
2016-08-01 10:51:00,10:51:24,10:51:24,37843,37843,16635.0,42,16640.0,27,16640.0,16640.0,16640.0,16640.0,1,1,16635,41,16640,26
2016-08-01 10:52:00,10:52:08,10:52:57,37864,37952,16635.0,47,16640.0,27,16640.0,16645.0,16640.0,16645.0,71,-11,16640,38,16645,19
2016-08-01 10:53:00,10:53:03,10:53:56,37958,38036,16640.0,40,16645.0,21,16645.0,16645.0,16630.0,16630.0,74,-68,16630,12,16635,27
2016-08-01 10:54:00,10:54:17,10:54:57,38054,38130,16630.0,22,16635.0,30,16630.0,16630.0,16625.0,16630.0,50,-14,16630,28,16635,16
2016-08-01 10:55:00,10:55:12,10:55:23,38141,38159,16630.0,32,16635.0,12,16635.0,16640.0,16635.0,16640.0,8,8,16635,16,16640,37
2016-08-01 10:56:00,10:56:04,10:56:52,38181,38319,16635.0,33,16640.0,28,16640.0,16650.0,16625.0,16630.0,134,50,16630,36,16635,29
2016-08-01 10:57:00,10:57:04,10:57:42,38330,38403,16635.0,16,16640.0,26,16635.0,16635.0,16630.0,16630.0,51,-39,16625,28,16630,10
2016-08-01 10:58:00,10:58:03,10:58:49,38424,38473,16625.0,29,16630.0,21,16625.0,16635.0,16625.0,16635.0,41,39,16635,11,16635,5
2016-08-01 10:59:00,10:59:08,10:59:59,38492,38570,16635.0,19,16640.0,29,16640.0,16640.0,16630.0,16635.0,73,35,16635,11,16640,35
2016-08-01 11:00:00,11:00:00,11:00:53,38573,38654,16635.0,11,16640.0,35,16635.0,16640.0,16635.0,16635.0,40,-21,16630,36,16635,2
2016-08-01 11:01:00,11:01:15,11:01:58,38667,38803,16635.0,28,16640.0,23,16635.0,16640.0,16635.0,16635.0,117,39,16635,20,16630,25
2016-08-01 11:02:00,11:02:03,11:02:43,38805,38962,16635.0,20,16640.0,30,16635.0,16635.0,16615.0,16620.0,171,-169,16620,19,16625,31
2016-08-01 11:03:00,11:03:00,11:03:58,38977,39248,16620.0,6,16625.0,38,16625.0,16625.0,16605.0,16605.0,300,-190,16605,20,16610,20
2016-08-01 11:04:00,11:04:02,11:04:59,39255,39348,16605.0,17,16610.0,15,16610.0,16615.0,16605.0,16615.0,45,9,16610,31,16615,10
2016-08-01 11:05:00,11:05:00,11:05:58,39351,39416,16610.0,31,16615.0,10,16615.0,16620.0,16610.0,16620.0,51,-11,16615,24,16620,21
2016-08-01 11:06:00,11:06:07,11:06:52,39419,39441,16615.0,24,16620.0,21,16615.0,16620.0,16615.0,16615.0,12,-10,16615,12,16620,17
2016-08-01 11:07:00,11:07:21,11:07:48,39451,39483,16615.0,17,16620.0,25,16615.0,16615.0,16615.0,16615.0,28,0,16615,9,16620,29
2016-08-01 11:08:00,11:08:01,11:08:56,39498,39559,16615.0,14,16620.0,26,16615.0,16615.0,16610.0,16610.0,43,-27,16610,74,16615,24
2016-08-01 11:09:00,11:09:00,11:09:00,0,0,0.0,0,0.0,0,16610.0,16610.0,16610.0,16610.0,0,0,0,0,0,0
2016-08-01 11:10:00,11:10:04,11:10:35,39586,39652,16610.0,76,16615.0,32,16615.0,16615.0,16595.0,16595.0,186,-184,16595,23,16600,18
2016-08-01 11:11:00,11:11:01,11:11:54,39678,39851,16595.0,24,16600.0,16,16595.0,16600.0,16590.0,16595.0,155,-51,16590,16,16595,17
2016-08-01 11:12:00,11:12:08,11:12:58,39861,39955,16590.0,8,16595.0,24,16590.0,16595.0,16590.0,16590.0,56,-43,16590,2,16590,5
2016-08-01 11:13:00,11:13:05,11:13:32,39964,40001,16585.0,37,16590.0,5,16590.0,16595.0,16590.0,16595.0,20,6,16590,37,16595,12
2016-08-01 11:14:00,11:14:02,11:14:55,40012,40076,16590.0,36,16595.0,13,16595.0,16595.0,16590.0,16595.0,53,-17,16590,33,16595,8
2016-08-01 11:15:00,11:15:02,11:15:56,40082,40134,16590.0,32,16595.0,8,16595.0,16595.0,16590.0,16590.0,45,-34,16590,17,16595,32
2016-08-01 11:16:00,11:16:02,11:16:55,40141,40169,16590.0,13,16595.0,33,16595.0,16595.0,16595.0,16595.0,5,5,16590,32,16595,39
2016-08-01 11:17:00,11:17:10,11:17:38,40176,40234,16590.0,28,16595.0,43,16590.0,16590.0,16585.0,16585.0,75,-75,16585,27,16590,25
2016-08-01 11:18:00,11:18:03,11:18:45,40251,40311,16585.0,25,16590.0,35,16590.0,16595.0,16590.0,16595.0,24,22,16590,25,16595,32
2016-08-01 11:19:00,11:19:13,11:19:47,40326,40358,16590.0,16,16595.0,46,16590.0,16590.0,16585.0,16585.0,31,-21,16585,15,16590,36
2016-08-01 11:20:00,11:20:02,11:20:34,40367,40412,16585.0,15,16590.0,41,16590.0,16590.0,16580.0,16580.0,16,-14,16580,24,16585,31
2016-08-01 11:21:00,11:21:06,11:21:56,40433,40490,16580.0,22,16585.0,24,16585.0,16585.0,16575.0,16575.0,35,-29,16575,9,16580,29
2016-08-01 11:22:00,11:22:06,11:22:09,40503,40537,16575.0,13,16580.0,30,16580.0,16580.0,16580.0,16580.0,43,13,16575,33,16580,7
2016-08-01 11:23:00,11:23:00,11:23:25,40575,40617,16575.0,33,16580.0,10,16580.0,16585.0,16580.0,16585.0,36,36,16585,2,16590,29
2016-08-01 11:24:00,11:24:00,11:24:00,0,0,0.0,0,0.0,0,16585.0,16585.0,16585.0,16585.0,0,0,0,0,0,0
2016-08-01 11:25:00,11:25:02,11:25:32,40666,40682,16585.0,13,16590.0,32,16590.0,16590.0,16590.0,16590.0,7,7,16585,17,16590,21
2016-08-01 11:26:00,11:26:03,11:26:43,40696,40749,16585.0,24,16590.0,17,16590.0,16595.0,16585.0,16595.0,33,23,16590,18,16595,24
2016-08-01 11:27:00,11:27:03,11:27:59,40763,40808,16590.0,10,16595.0,40,16595.0,16595.0,16590.0,16595.0,14,10,16590,37,16595,4
2016-08-01 11:28:00,11:28:03,11:28:40,40814,40854,16590.0,36,16595.0,3,16595.0,16600.0,16595.0,16600.0,8,7,16595,18,16600,31
2016-08-01 11:29:00,11:29:03,11:29:58,40866,40927,16595.0,21,16600.0,34,16600.0,16600.0,16595.0,16600.0,15,13,16595,34,16600,12
2016-08-01 11:30:00,11:30:00,11:30:54,40932,41287,16595.0,40,16600.0,6,16600.0,16615.0,16600.0,16605.0,364,36,16600,35,16610,37
2016-08-01 11:31:00,11:31:01,11:31:42,41298,41412,16605.0,18,16610.0,35,16610.0,16610.0,16595.0,16600.0,72,-26,16595,22,16600,5
2016-08-01 11:32:00,11:32:02,11:32:57,41452,41647,16595.0,26,16600.0,11,16600.0,16605.0,16595.0,16600.0,159,39,16600,20,16605,46
2016-08-01 11:33:00,11:33:02,11:33:55,41654,41735,16600.0,12,16605.0,47,16605.0,16605.0,16600.0,16600.0,49,-21,16595,29,16600,39
2016-08-01 11:34:00,11:34:25,11:34:42,41754,41793,16595.0,37,16600.0,27,16600.0,16605.0,16600.0,16600.0,24,14,16600,61,16605,51
2016-08-01 11:35:00,11:35:03,11:35:46,41810,41981,16600.0,66,16605.0,48,16605.0,16605.0,16590.0,16590.0,246,-90,16585,32,16590,8
2016-08-01 11:36:00,11:36:14,11:36:55,42020,42164,16585.0,37,16590.0,23,16590.0,16600.0,16590.0,16590.0,129,69,16590,16,16595,52
2016-08-01 11:37:00,11:37:02,11:37:55,42173,42245,16590.0,16,16595.0,51,16590.0,16590.0,16585.0,16585.0,57,-29,16580,29,16585,43
2016-08-01 11:38:00,11:38:17,11:38:48,42271,42391,16580.0,32,16585.0,44,16585.0,16595.0,16585.0,16595.0,102,48,16590,24,16595,16
2016-08-01 11:39:00,11:39:06,11:39:50,42404,42533,16590.0,25,16595.0,16,16595.0,16605.0,16595.0,16600.0,100,21,16600,3,16605,50
2016-08-01 11:40:00,11:40:06,11:40:43,42549,42676,16600.0,20,16605.0,38,16600.0,16600.0,16595.0,16595.0,70,-50,16595,4,16600,34
2016-08-01 11:41:00,11:41:07,11:41:59,42694,42908,16595.0,31,16600.0,24,16595.0,16615.0,16595.0,16605.0,182,55,16605,23,16610,27
2016-08-01 11:42:00,11:42:04,11:42:55,42916,43058,16605.0,20,16610.0,32,16605.0,16605.0,16595.0,16600.0,118,-4,16595,41,16605,46
2016-08-01 11:43:00,11:43:10,11:43:58,43080,43342,16595.0,20,16600.0,36,16595.0,16595.0,16580.0,16590.0,268,-115,16585,26,16590,26
2016-08-01 11:44:00,11:44:06,11:44:58,43349,43478,16585.0,16,16590.0,38,16585.0,16595.0,16585.0,16595.0,81,-3,16595,19,16600,27
2016-08-01 11:45:00,11:45:00,11:45:58,43486,43693,16595.0,29,16600.0,28,16600.0,16605.0,16600.0,16605.0,182,35,16605,22,16610,29
2016-08-01 11:46:00,11:46:01,11:46:56,43704,43906,16605.0,15,16610.0,32,16605.0,16620.0,16605.0,16620.0,195,-61,16615,21,16620,28
2016-08-01 11:47:00,11:47:00,11:47:59,43912,44046,16615.0,3,16620.0,34,16615.0,16620.0,16615.0,16615.0,90,13,16610,30,16615,2
2016-08-01 11:48:00,11:48:15,11:48:59,44069,44175,16615.0,26,16620.0,23,16615.0,16620.0,16615.0,16615.0,117,-91,16615,2,16620,47
2016-08-01 11:49:00,11:49:00,11:49:59,44178,44539,16615.0,2,16620.0,47,16615.0,16645.0,16615.0,16640.0,497,362,16640,5,16645,59
2016-08-01 11:50:00,11:50:02,11:50:58,44546,44775,16640.0,6,16645.0,45,16640.0,16645.0,16635.0,16640.0,218,-54,16640,24,16645,35
2016-08-01 11:51:00,11:51:03,11:51:59,44793,44901,16640.0,35,16645.0,10,16645.0,16655.0,16645.0,16645.0,77,39,16645,24,16650,15
2016-08-01 11:52:00,11:52:03,11:52:55,44905,45062,16645.0,26,16650.0,15,16650.0,16655.0,16650.0,16650.0,191,127,16645,19,16650,33
2016-08-01 11:53:00,11:53:03,11:53:48,45075,45287,16645.0,14,16650.0,37,16650.0,16655.0,16650.0,16655.0,228,51,16650,32,16655,25
2016-08-01 11:54:00,11:54:09,11:54:59,45308,45654,16650.0,36,16655.0,18,16655.0,16655.0,16625.0,16635.0,470,-250,16635,11,16640,35
2016-08-01 11:55:00,11:55:00,11:55:56,45657,45857,16635.0,11,16640.0,35,16635.0,16650.0,16635.0,16650.0,172,-57,16645,17,16650,23
2016-08-01 11:56:00,11:56:00,11:56:59,45864,45997,16645.0,18,16650.0,27,16645.0,16645.0,16635.0,16645.0,142,-90,16640,45,16645,14
2016-08-01 11:57:00,11:57:43,11:57:56,46020,46074,16640.0,20,16645.0,28,16640.0,16640.0,16635.0,16635.0,47,-19,16630,41,16640,35
2016-08-01 11:58:00,11:58:06,11:58:58,46099,46233,16630.0,19,16635.0,28,16630.0,16640.0,16630.0,16635.0,108,-78,16635,8,16640,27
2016-08-01 11:59:00,11:59:00,11:59:52,46236,46343,16630.0,68,16640.0,32,16635.0,16640.0,16635.0,16640.0,74,-36,16635,48,16645,32
2016-08-01 12:00:00,12:00:00,12:00:59,46359,46504,16635.0,3,16640.0,28,16640.0,16645.0,16635.0,16645.0,98,-10,16640,26,16645,11
2016-08-01 12:01:00,12:01:02,12:01:46,46511,46609,16640.0,21,16645.0,20,16640.0,16640.0,16635.0,16635.0,64,-36,16635,4,16640,30
2016-08-01 12:02:00,12:02:03,12:02:55,46624,46808,16635.0,17,16640.0,27,16635.0,16635.0,16625.0,16625.0,175,-144,16625,19,16630,34
2016-08-01 12:03:00,12:03:03,12:03:52,46816,47046,16625.0,22,16630.0,35,16625.0,16625.0,16605.0,16615.0,232,-123,16610,36,16615,6
2016-08-01 12:04:00,12:04:29,12:04:57,47088,47177,16610.0,30,16615.0,17,16610.0,16615.0,16610.0,16610.0,79,15,16610,2,16615,30
2016-08-01 12:05:00,12:05:13,12:05:47,47188,47247,16610.0,8,16615.0,28,16610.0,16610.0,16605.0,16605.0,33,-32,16600,24,16605,21
2016-08-01 12:06:00,12:06:00,12:06:51,47260,47370,16600.0,20,16605.0,23,16600.0,16600.0,16590.0,16595.0,69,-9,16590,38,16600,44
2016-08-01 12:07:00,12:07:00,12:07:57,47388,47530,16595.0,13,16600.0,37,16595.0,16600.0,16590.0,16600.0,84,1,16600,6,16600,2
2016-08-01 12:08:00,12:08:04,12:08:47,47538,47625,16600.0,1,16605.0,50,16600.0,16605.0,16595.0,16600.0,77,9,16600,1,16605,32
2016-08-01 12:09:00,12:09:09,12:09:55,47643,47720,16600.0,22,16605.0,26,16605.0,16605.0,16605.0,16605.0,63,45,16600,32,16610,63
2016-08-01 12:10:00,12:10:19,12:10:58,47748,47853,16600.0,20,16605.0,29,16600.0,16600.0,16580.0,16580.0,71,-71,16580,30,16585,14
2016-08-01 12:11:00,12:11:00,12:11:46,47861,47965,16580.0,25,16585.0,21,16580.0,16590.0,16580.0,16590.0,55,16,16585,51,16590,6
2016-08-01 12:12:00,12:12:45,12:12:59,48006,48073,16585.0,49,16590.0,30,16590.0,16590.0,16590.0,16590.0,61,46,16585,71,16595,47
2016-08-01 12:13:00,12:13:00,12:13:57,48076,48180,16585.0,71,16595.0,47,16590.0,16590.0,16585.0,16590.0,79,57,16590,10,16595,41
2016-08-01 12:14:00,12:14:00,12:14:53,48189,48298,16590.0,3,16595.0,42,16590.0,16595.0,16590.0,16595.0,92,-20,16590,32,16595,4
2016-08-01 12:15:00,12:15:00,12:15:59,48303,48373,16590.0,42,16595.0,5,16595.0,16600.0,16595.0,16600.0,42,40,16600,34,16605,22
2016-08-01 12:16:00,12:16:20,12:16:57,48397,48436,16600.0,35,16605.0,14,16605.0,16605.0,16600.0,16600.0,22,10,16595,5,16600,38
2016-08-01 12:17:00,12:17:00,12:17:59,48446,48530,16595.0,7,16600.0,46,16595.0,16595.0,16595.0,16595.0,62,12,16595,13,16600,43
2016-08-01 12:18:00,12:18:00,12:18:57,48537,48619,16595.0,3,16600.0,43,16595.0,16595.0,16595.0,16595.0,13,-3,16590,24,16595,15
2016-08-01 12:19:00,12:19:15,12:19:45,48637,48740,16590.0,37,16595.0,9,16595.0,16600.0,16595.0,16600.0,88,56,16600,14,16605,39
2016-08-01 12:20:00,12:20:07,12:20:39,48771,48813,16595.0,13,16600.0,35,16595.0,16595.0,16595.0,16595.0,26,0,16595,12,16600,34
2016-08-01 12:21:00,12:21:01,12:21:59,48838,48953,16595.0,19,16600.0,34,16595.0,16600.0,16595.0,16595.0,95,-36,16590,43,16600,32
2016-08-01 12:22:00,12:22:09,12:22:15,48969,49000,16595.0,24,16600.0,28,16600.0,16600.0,16595.0,16595.0,33,-1,16595,17,16600,31
2016-08-01 12:23:00,12:23:15,12:23:59,49038,49107,16595.0,30,16600.0,13,16595.0,16605.0,16595.0,16605.0,24,-2,16600,30,16605,21
2016-08-01 12:24:00,12:24:01,12:24:58,49112,49192,16600.0,31,16605.0,15,16605.0,16605.0,16595.0,16595.0,45,-13,16595,56,16600,10
2016-08-01 12:25:00,12:25:32,12:25:32,49213,49213,16595.0,37,16600.0,31,16595.0,16595.0,16595.0,16595.0,1,-1,16595,35,16600,33
2016-08-01 12:26:00,12:26:13,12:26:53,49228,49387,16595.0,29,16600.0,48,16595.0,16595.0,16575.0,16580.0,158,-113,16575,42,16585,44
2016-08-01 12:27:00,12:27:00,12:27:57,49401,49525,16580.0,22,16585.0,30,16580.0,16585.0,16580.0,16580.0,88,-21,16575,37,16585,42
2016-08-01 12:28:00,12:28:35,12:28:42,49560,49586,16580.0,25,16585.0,26,16585.0,16585.0,16580.0,16580.0,36,-34,16575,44,16585,32
2016-08-01 12:29:00,12:29:01,12:29:37,49601,49686,16580.0,3,16585.0,32,16580.0,16580.0,16575.0,16580.0,79,65,16575,42,16580,6
2016-08-01 12:30:00,12:30:18,12:30:42,49736,49776,16575.0,31,16580.0,16,16575.0,16575.0,16575.0,16575.0,16,-4,16575,31,16580,22
2016-08-01 12:31:00,12:31:12,12:31:30,49807,49857,16575.0,3,16580.0,60,16575.0,16575.0,16575.0,16575.0,38,24,16575,14,16580,25
2016-08-01 12:32:00,12:32:01,12:32:28,49874,49954,16575.0,17,16580.0,46,16580.0,16585.0,16580.0,16580.0,78,34,16575,23,16580,22
2016-08-01 12:33:00,12:33:33,12:33:56,49994,50042,16575.0,23,16580.0,23,16580.0,16580.0,16580.0,16580.0,57,28,16580,15,16585,50
2016-08-01 12:34:00,12:34:13,12:34:49,50048,50117,16580.0,10,16585.0,51,16580.0,16580.0,16580.0,16580.0,64,24,16575,41,16585,70
2016-08-01 12:35:00,12:35:08,12:35:37,50138,50165,16580.0,4,16585.0,69,16580.0,16580.0,16575.0,16575.0,7,-5,16575,6,16580,52
2016-08-01 12:36:00,12:36:03,12:36:58,50184,50228,16575.0,14,16580.0,48,16575.0,16575.0,16570.0,16575.0,18,-6,16570,30,16575,57
2016-08-01 12:37:00,12:37:02,12:37:56,50231,50339,16570.0,30,16575.0,57,16575.0,16575.0,16570.0,16575.0,86,60,16570,35,16575,18
2016-08-01 12:38:00,12:38:47,12:38:54,50373,50385,16570.0,16,16575.0,58,16570.0,16570.0,16570.0,16570.0,19,-19,16570,6,16575,56
2016-08-01 12:39:00,12:39:46,12:39:55,50404,50430,16570.0,35,16575.0,45,16575.0,16575.0,16575.0,16575.0,35,31,16575,17,16580,41
2016-08-01 12:40:00,12:40:02,12:40:48,50432,50536,16575.0,17,16580.0,30,16575.0,16580.0,16575.0,16580.0,72,18,16575,34,16580,16
2016-08-01 12:41:00,12:41:22,12:41:58,50544,50605,16575.0,32,16580.0,26,16575.0,16575.0,16570.0,16570.0,51,-25,16565,25,16570,36
2016-08-01 12:42:00,12:42:00,12:42:59,50612,50776,16565.0,24,16570.0,36,16565.0,16565.0,16560.0,16560.0,154,-102,16555,42,16560,19
2016-08-01 12:43:00,12:43:00,12:43:45,50781,50863,16555.0,43,16560.0,17,16560.0,16565.0,16560.0,16560.0,74,48,16555,35,16560,22
2016-08-01 12:44:00,12:44:00,12:44:55,50880,51034,16555.0,34,16560.0,33,16555.0,16560.0,16550.0,16555.0,157,-80,16550,40,16560,42
2016-08-01 12:45:00,12:45:10,12:45:54,51042,51204,16550.0,43,16560.0,48,16555.0,16555.0,16540.0,16545.0,149,-27,16545,31,16550,47
2016-08-01 12:46:00,12:46:44,12:46:52,51229,51233,16545.0,35,16550.0,64,16545.0,16545.0,16545.0,16545.0,6,-6,16545,24,16550,67
2016-08-01 12:47:00,12:47:07,12:47:59,51237,51445,16545.0,26,16550.0,64,16545.0,16560.0,16545.0,16560.0,236,108,16560,35,16565,26
2016-08-01 12:48:00,12:48:05,12:48:45,51451,51578,16560.0,35,16565.0,35,16560.0,16575.0,16560.0,16575.0,173,129,16570,32,16575,28
2016-08-01 12:49:00,12:49:18,12:49:34,51597,51637,16570.0,31,16575.0,34,16575.0,16575.0,16570.0,16570.0,40,-38,16565,29,16570,17
2016-08-01 12:50:00,12:50:04,12:50:56,51674,51787,16565.0,33,16570.0,23,16565.0,16570.0,16565.0,16570.0,105,-63,16565,48,16570,6
2016-08-01 12:51:00,12:51:01,12:51:58,51792,51875,16565.0,48,16570.0,6,16570.0,16575.0,16570.0,16570.0,47,-33,16565,32,16570,21
2016-08-01 12:52:00,12:52:03,12:52:42,51884,51910,16565.0,28,16570.0,23,16565.0,16565.0,16565.0,16565.0,2,-2,16565,24,16570,29
2016-08-01 12:53:00,12:53:04,12:53:39,51920,52022,16565.0,11,16570.0,31,16565.0,16570.0,16565.0,16570.0,115,17,16565,47,16575,46
2016-08-01 12:54:00,12:54:02,12:54:58,52049,52111,16565.0,51,16570.0,7,16570.0,16570.0,16565.0,16565.0,9,1,16565,32,16570,25
2016-08-01 12:55:00,12:55:00,12:55:41,52114,52182,16565.0,32,16570.0,25,16565.0,16565.0,16565.0,16565.0,51,-45,16565,4,16570,27
2016-08-01 12:56:00,12:56:09,12:56:58,52210,52264,16565.0,16,16570.0,38,16565.0,16565.0,16560.0,16560.0,16,-16,16560,31,16565,24
2016-08-01 12:57:00,12:57:00,12:57:48,52268,52405,16560.0,31,16565.0,25,16560.0,16560.0,16555.0,16560.0,102,-34,16560,12,16565,28
2016-08-01 12:58:00,12:58:00,12:58:04,52418,52450,16560.0,29,16565.0,27,16565.0,16565.0,16565.0,16565.0,45,45,16560,39,16570,41
2016-08-01 12:59:00,12:59:28,12:59:58,52501,52558,16560.0,14,16565.0,27,16565.0,16565.0,16560.0,16560.0,40,30,16560,13,16565,31
2016-08-01 13:00:00,13:00:00,13:00:59,52562,52678,16560.0,12,16565.0,31,16565.0,16565.0,16560.0,16565.0,72,22,16565,17,16570,31
2016-08-01 13:01:00,13:01:14,13:01:32,52700,52736,16565.0,17,16570.0,32,16565.0,16565.0,16565.0,16565.0,20,-4,16560,45,16565,9
2016-08-01 13:02:00,13:02:33,13:02:53,52796,52888,16560.0,40,16565.0,27,16560.0,16570.0,16560.0,16570.0,79,-10,16570,21,16575,32
2016-08-01 13:03:00,13:03:31,13:03:31,52920,52930,16570.0,59,16575.0,14,16575.0,16575.0,16575.0,16575.0,14,14,16575,15,16580,38
2016-08-01 13:04:00,13:04:26,13:04:50,52966,53045,16575.0,50,16580.0,21,16580.0,16585.0,16580.0,16580.0,95,-5,16580,10,16585,42
2016-08-01 13:05:00,13:05:07,13:05:58,53070,53179,16580.0,31,16585.0,8,16585.0,16585.0,16580.0,16585.0,60,8,16585,4,16590,33
2016-08-01 13:06:00,13:06:13,13:06:45,53195,53249,16585.0,22,16590.0,27,16585.0,16585.0,16580.0,16585.0,44,-8,16580,41,16590,42
2016-08-01 13:07:00,13:07:02,13:07:50,53264,53302,16585.0,13,16590.0,29,16590.0,16590.0,16590.0,16590.0,3,3,16585,33,16590,15
2016-08-01 13:08:00,13:08:02,13:08:58,53314,53385,16585.0,38,16590.0,15,16590.0,16590.0,16585.0,16585.0,62,60,16585,42,16590,7
2016-08-01 13:09:00,13:09:09,13:09:55,53390,53450,16585.0,47,16590.0,8,16590.0,16590.0,16590.0,16590.0,30,24,16585,54,16590,2
2016-08-01 13:10:00,13:10:08,13:10:54,53463,53528,16585.0,48,16590.0,15,16590.0,16590.0,16590.0,16590.0,23,21,16585,50,16595,35
2016-08-01 13:11:00,13:11:16,13:11:32,53547,53626,16585.0,51,16590.0,5,16590.0,16590.0,16590.0,16590.0,78,17,16585,43,16590,2
2016-08-01 13:12:00,13:12:29,13:12:49,53657,53672,16585.0,36,16590.0,19,16585.0,16585.0,16585.0,16585.0,3,-3,16585,29,16590,19
2016-08-01 13:13:00,13:13:10,13:13:55,53684,53756,16585.0,23,16590.0,28,16585.0,16595.0,16585.0,16595.0,82,64,16590,57,16600,35
2016-08-01 13:14:00,13:14:04,13:14:59,53769,53815,16590.0,57,16600.0,35,16595.0,16600.0,16595.0,16600.0,5,1,16595,36,16600,35
2016-08-01 13:15:00,13:15:03,13:15:57,53819,53895,16595.0,39,16600.0,35,16595.0,16600.0,16595.0,16595.0,59,-45,16590,42,16600,70
2016-08-01 13:16:00,13:16:05,13:16:57,53908,54003,16590.0,38,16595.0,29,16590.0,16590.0,16585.0,16585.0,83,-33,16585,10,16590,47
2016-08-01 13:17:00,13:17:00,13:17:48,54006,54073,16585.0,9,16590.0,42,16585.0,16585.0,16580.0,16585.0,57,5,16585,10,16590,41
2016-08-01 13:18:00,13:18:04,13:18:47,54090,54123,16585.0,19,16590.0,63,16585.0,16590.0,16580.0,16580.0,22,-6,16580,34,16585,32
2016-08-01 13:19:00,13:19:10,13:19:48,54141,54185,16580.0,35,16585.0,34,16580.0,16580.0,16575.0,16575.0,42,-36,16575,83,16580,27
2016-08-01 13:20:00,13:20:07,13:20:54,54191,54318,16575.0,88,16580.0,29,16580.0,16585.0,16580.0,16580.0,120,-14,16580,7,16585,49
2016-08-01 13:21:00,13:21:04,13:21:57,54333,54465,16580.0,31,16585.0,12,16585.0,16590.0,16585.0,16590.0,99,73,16585,38,16590,7
2016-08-01 13:22:00,13:22:10,13:22:22,54481,54495,16585.0,32,16590.0,30,16590.0,16590.0,16590.0,16590.0,17,15,16585,32,16590,11
2016-08-01 13:23:00,13:23:09,13:23:59,54537,54658,16585.0,20,16590.0,28,16585.0,16585.0,16580.0,16585.0,107,-29,16580,44,16590,31
2016-08-01 13:24:00,13:24:04,13:24:59,54665,54726,16580.0,42,16585.0,1,16585.0,16585.0,16580.0,16585.0,33,-5,16580,41,16590,43
2016-08-01 13:25:00,13:25:03,13:25:25,54731,54762,16580.0,41,16585.0,3,16585.0,16585.0,16585.0,16585.0,11,1,16580,64,16590,40
2016-08-01 13:26:00,13:26:21,13:26:21,54793,54794,16585.0,28,16590.0,40,16590.0,16590.0,16590.0,16590.0,2,2,16585,30,16590,39
2016-08-01 13:27:00,13:27:14,13:27:59,54805,54940,16585.0,42,16590.0,38,16590.0,16595.0,16590.0,16595.0,152,33,16590,46,16595,10
2016-08-01 13:28:00,13:28:03,13:28:50,54946,55047,16590.0,46,16595.0,5,16595.0,16595.0,16590.0,16590.0,81,-25,16590,9,16595,40
2016-08-01 13:29:00,13:29:04,13:29:48,55068,55127,16590.0,7,16595.0,30,16590.0,16595.0,16590.0,16590.0,29,5,16590,21,16595,44
2016-08-01 13:30:00,13:30:12,13:30:37,55150,55190,16585.0,48,16590.0,26,16590.0,16590.0,16590.0,16590.0,33,-5,16590,5,16595,29
2016-08-01 13:31:00,13:31:10,13:31:10,55209,55209,16590.0,23,16595.0,18,16595.0,16595.0,16595.0,16595.0,1,1,16590,22,16595,17
2016-08-01 13:32:00,13:32:00,13:32:00,0,0,0.0,0,0.0,0,16595.0,16595.0,16595.0,16595.0,0,0,0,0,0,0
2016-08-01 13:33:00,13:33:55,13:33:56,55295,55315,16590.0,19,16595.0,30,16590.0,16590.0,16590.0,16590.0,26,-20,16585,35,16590,25
2016-08-01 13:34:00,13:34:04,13:34:58,55324,55411,16585.0,38,16590.0,36,16585.0,16585.0,16585.0,16585.0,73,-39,16585,4,16590,29
2016-08-01 13:35:00,13:35:02,13:35:43,55418,55513,16585.0,4,16590.0,29,16585.0,16595.0,16585.0,16590.0,53,10,16585,44,16590,5
2016-08-01 13:36:00,13:36:23,13:36:57,55522,55618,16585.0,39,16590.0,1,16590.0,16595.0,16590.0,16595.0,57,-17,16595,5,16600,60
2016-08-01 13:37:00,13:37:13,13:37:31,55641,55737,16595.0,15,16600.0,37,16600.0,16605.0,16600.0,16605.0,104,82,16605,2,16610,52
2016-08-01 13:38:00,13:38:01,13:38:59,55770,55896,16605.0,11,16610.0,37,16605.0,16620.0,16605.0,16620.0,103,97,16620,13,16625,16
2016-08-01 13:39:00,13:39:12,13:39:57,55911,55989,16620.0,17,16625.0,18,16620.0,16620.0,16615.0,16615.0,57,15,16615,25,16620,31
2016-08-01 13:40:00,13:40:02,13:40:56,55997,56108,16615.0,19,16620.0,32,16615.0,16615.0,16615.0,16615.0,42,-38,16615,13,16620,23
2016-08-01 13:41:00,13:41:01,13:41:39,56114,56153,16615.0,18,16620.0,23,16615.0,16620.0,16615.0,16620.0,3,-1,16615,20,16620,24
2016-08-01 13:42:00,13:42:16,13:42:59,56178,56279,16615.0,31,16620.0,22,16620.0,16625.0,16620.0,16625.0,65,65,16620,44,16630,37
2016-08-01 13:43:00,13:43:00,13:43:24,56281,56403,16620.0,44,16625.0,4,16625.0,16640.0,16625.0,16630.0,125,61,16625,47,16635,46
2016-08-01 13:44:00,13:44:41,13:44:52,56448,56495,16625.0,37,16630.0,81,16625.0,16625.0,16625.0,16625.0,66,-56,16620,32,16625,32
2016-08-01 13:45:00,13:45:00,13:45:53,56500,56732,16620.0,32,16625.0,36,16620.0,16625.0,16620.0,16620.0,294,97,16620,16,16625,28
2016-08-01 13:46:00,13:46:17,13:46:28,56760,56799,16620.0,41,16625.0,14,16625.0,16625.0,16625.0,16625.0,30,30,16625,24,16630,71
2016-08-01 13:47:00,13:47:19,13:47:56,56834,56871,16625.0,23,16630.0,74,16630.0,16630.0,16625.0,16625.0,18,-12,16620,38,16625,27
2016-08-01 13:48:00,13:48:40,13:48:43,56905,56928,16620.0,40,16625.0,29,16620.0,16620.0,16620.0,16620.0,27,-27,16615,33,16620,47
2016-08-01 13:49:00,13:49:07,13:49:37,56955,57019,16615.0,17,16620.0,63,16615.0,16615.0,16615.0,16615.0,44,-16,16615,18,16620,55
2016-08-01 13:50:00,13:50:00,13:50:58,57050,57232,16615.0,23,16620.0,57,16615.0,16615.0,16610.0,16610.0,191,-47,16605,46,16610,2
2016-08-01 13:51:00,13:51:00,13:51:28,57236,57287,16605.0,46,16610.0,12,16610.0,16615.0,16610.0,16615.0,39,25,16615,34,16620,62
2016-08-01 13:52:00,13:52:04,13:52:26,57324,57375,16615.0,25,16620.0,49,16615.0,16615.0,16615.0,16615.0,52,-20,16610,47,16615,7
2016-08-01 13:53:00,13:53:00,13:53:52,57415,57564,16610.0,49,16615.0,2,16615.0,16615.0,16605.0,16610.0,119,15,16605,47,16610,2
2016-08-01 13:54:00,13:54:03,13:54:59,57586,57696,16605.0,39,16610.0,21,16605.0,16615.0,16605.0,16615.0,76,-49,16610,43,16615,8
2016-08-01 13:55:00,13:55:00,13:55:42,57699,57830,16610.0,43,16615.0,8,16610.0,16610.0,16605.0,16605.0,85,-39,16600,42,16610,44
2016-08-01 13:56:00,13:56:16,13:56:56,57880,57970,16600.0,45,16605.0,11,16605.0,16610.0,16605.0,16610.0,50,0,16610,37,16615,19
2016-08-01 13:57:00,13:57:00,13:57:53,57979,58188,16610.0,35,16615.0,22,16610.0,16610.0,16600.0,16605.0,206,-76,16605,15,16610,60
2016-08-01 13:58:00,13:58:06,13:58:52,58206,58341,16605.0,14,16610.0,53,16605.0,16605.0,16600.0,16605.0,195,3,16600,46,16610,73
2016-08-01 13:59:00,13:59:00,13:59:59,58357,58692,16605.0,9,16610.0,67,16605.0,16615.0,16600.0,16610.0,471,-4,16610,3,16615,26
2016-08-01 14:00:00,14:00:00,14:00:59,58693,59176,16605.0,24,16610.0,49,16605.0,16615.0,16595.0,16595.0,816,6,16595,18,16600,42
2016-08-01 14:01:00,14:01:01,14:01:59,59182,59348,16595.0,18,16600.0,47,16595.0,16600.0,16595.0,16600.0,189,20,16595,38,16600,59
2016-08-01 14:02:00,14:02:01,14:02:56,59355,59539,16595.0,23,16600.0,70,16595.0,16605.0,16595.0,16600.0,269,132,16600,37,16605,34
2016-08-01 14:03:00,14:03:03,14:03:58,59549,59730,16600.0,47,16605.0,36,16605.0,16610.0,16605.0,16605.0,294,153,16605,12,16610,54
2016-08-01 14:04:00,14:04:02,14:04:59,59733,59797,16605.0,12,16610.0,54,16605.0,16605.0,16605.0,16605.0,83,5,16600,13,16605,39
2016-08-01 14:05:00,14:05:00,14:05:49,59798,59914,16600.0,65,16605.0,16,16600.0,16615.0,16600.0,16610.0,138,20,16605,66,16610,19
2016-08-01 14:06:00,14:06:01,14:06:37,59928,60034,16605.0,54,16610.0,27,16605.0,16610.0,16605.0,16605.0,108,2,16605,50,16610,46
2016-08-01 14:07:00,14:07:01,14:07:56,60052,60123,16605.0,53,16610.0,55,16605.0,16605.0,16605.0,16605.0,71,-51,16600,45,16605,44
2016-08-01 14:08:00,14:08:00,14:08:57,60130,60331,16600.0,55,16605.0,47,16600.0,16600.0,16590.0,16600.0,300,-144,16595,53,16600,42
2016-08-01 14:09:00,14:09:01,14:09:54,60341,60531,16595.0,56,16600.0,49,16595.0,16595.0,16585.0,16585.0,212,-33,16585,28,16590,73
