,ST,ET,sidx,eidx,bB,bBS,bA,bAS,O,H,L,C,V,OF,eB,eBS,eA,eAS
2016-12-05 08:00:00,08:00:00,08:00:59,4634,5135,18350.0,5,18355.0,34,18350.0,18355.0,18325.0,18325.0,551,-321,18320,42,18325,6
2016-12-05 08:01:00,08:01:01,08:01:59,5143,5606,18320.0,38,18325.0,43,18325.0,18325.0,18300.0,18310.0,503,-183,18305,49,18315,49
2016-12-05 08:02:00,08:02:00,08:02:54,5609,5897,18305.0,49,18315.0,49,18310.0,18330.0,18310.0,18325.0,320,167,18325,28,18330,21
2016-12-05 08:03:00,08:03:01,08:03:57,5913,6242,18325.0,39,18330.0,39,18330.0,18345.0,18330.0,18330.0,396,-52,18330,29,18335,27
2016-12-05 08:04:00,08:04:05,08:04:56,6252,6483,18330.0,42,18335.0,26,18330.0,18330.0,18325.0,18325.0,204,-96,18320,46,18325,26
2016-12-05 08:05:00,08:05:00,08:05:58,6493,6731,18320.0,44,18325.0,31,18325.0,18340.0,18325.0,18335.0,232,74,18330,38,18335,12
2016-12-05 08:06:00,08:06:03,08:06:46,6741,6931,18330.0,39,18335.0,20,18335.0,18345.0,18335.0,18345.0,234,111,18340,59,18350,23
2016-12-05 08:07:00,08:07:00,08:07:59,6962,7424,18345.0,33,18350.0,28,18350.0,18375.0,18350.0,18355.0,571,-45,18350,43,18355,9
2016-12-05 08:08:00,08:08:00,08:08:56,7428,7700,18350.0,44,18355.0,9,18355.0,18365.0,18350.0,18365.0,276,88,18365,11,18370,105
2016-12-05 08:09:00,08:09:02,08:09:54,7715,8010,18365.0,29,18370.0,104,18365.0,18365.0,18360.0,18365.0,313,-213,18360,59,18365,5
2016-12-05 08:10:00,08:10:06,08:10:57,8031,8312,18360.0,49,18365.0,46,18360.0,18365.0,18355.0,18360.0,323,-150,18355,52,18365,49
2016-12-05 08:11:00,08:11:02,08:11:56,8324,8477,18355.0,48,18360.0,30,18355.0,18365.0,18350.0,18350.0,112,-48,18350,21,18355,45
2016-12-05 08:12:00,08:12:00,08:12:58,8488,8731,18350.0,23,18355.0,43,18355.0,18365.0,18350.0,18360.0,205,29,18360,20,18365,29
2016-12-05 08:13:00,08:13:14,08:13:58,8745,8873,18360.0,37,18365.0,31,18360.0,18360.0,18355.0,18355.0,98,-98,18350,37,18355,27
2016-12-05 08:14:00,08:14:01,08:14:58,8886,9292,18350.0,35,18355.0,31,18350.0,18360.0,18345.0,18355.0,485,63,18350,37,18360,43
2016-12-05 08:15:00,08:15:00,08:15:55,9296,9472,18355.0,7,18360.0,43,18355.0,18360.0,18350.0,18350.0,121,1,18345,42,18355,32
2016-12-05 08:16:00,08:16:02,08:16:54,9493,9704,18345.0,26,18350.0,36,18345.0,18345.0,18340.0,18340.0,183,-53,18335,41,18345,38
2016-12-05 08:17:00,08:17:01,08:17:59,9713,10302,18335.0,36,18340.0,24,18335.0,18365.0,18320.0,18355.0,803,53,18355,9,18360,37
2016-12-05 08:18:00,08:18:02,08:18:59,10307,10672,18355.0,17,18360.0,37,18355.0,18360.0,18350.0,18355.0,484,-276,18350,36,18355,15
2016-12-05 08:19:00,08:19:00,08:19:55,10679,10985,18350.0,15,18355.0,42,18350.0,18350.0,18335.0,18335.0,338,-57,18335,22,18340,51
2016-12-05 08:20:00,08:20:06,08:20:56,10998,11194,18335.0,33,18340.0,53,18335.0,18335.0,18325.0,18330.0,207,-39,18330,5,18335,76
2016-12-05 08:21:00,08:21:04,08:21:49,11207,11426,18330.0,19,18335.0,76,18330.0,18330.0,18320.0,18330.0,222,14,18325,36,18330,12
2016-12-05 08:22:00,08:22:13,08:22:57,11453,11603,18325.0,37,18330.0,30,18330.0,18330.0,18315.0,18315.0,124,-32,18315,14,18320,30
2016-12-05 08:23:00,08:23:01,08:23:58,11614,11830,18315.0,17,18320.0,33,18320.0,18320.0,18315.0,18315.0,233,19,18315,26,18320,13
2016-12-05 08:24:00,08:24:08,08:24:39,11848,11997,18315.0,40,18320.0,8,18320.0,18320.0,18310.0,18320.0,139,-7,18315,32,18320,7
2016-12-05 08:25:00,08:25:03,08:25:45,12026,12139,18315.0,38,18320.0,22,18315.0,18320.0,18315.0,18315.0,75,-33,18315,20,18320,26
2016-12-05 08:26:00,08:26:05,08:26:59,12160,12315,18315.0,34,18320.0,21,18315.0,18315.0,18300.0,18305.0,126,-64,18305,15,18310,52
2016-12-05 08:27:00,08:27:00,08:27:30,12317,12362,18305.0,15,18310.0,44,18305.0,18305.0,18305.0,18305.0,5,-5,18305,14,18310,47
2016-12-05 08:28:00,08:28:02,08:28:56,12412,12583,18305.0,38,18310.0,40,18305.0,18325.0,18305.0,18315.0,165,37,18310,42,18320,39
2016-12-05 08:29:00,08:29:02,08:29:59,12598,12797,18310.0,38,18315.0,6,18315.0,18325.0,18315.0,18315.0,193,-147,18310,31,18315,6
2016-12-05 08:30:00,08:30:20,08:30:53,12821,12846,18310.0,36,18315.0,71,18310.0,18315.0,18310.0,18310.0,14,-12,18310,19,18315,79
2016-12-05 08:31:00,08:31:05,08:31:51,12858,12981,18310.0,28,18315.0,78,18315.0,18320.0,18315.0,18315.0,130,98,18315,6,18320,38
2016-12-05 08:32:00,08:32:00,08:32:58,12994,13135,18315.0,20,18320.0,37,18315.0,18325.0,18315.0,18325.0,141,37,18325,18,18330,31
2016-12-05 08:33:00,08:33:21,08:33:53,13161,13238,18325.0,26,18330.0,32,18330.0,18330.0,18325.0,18325.0,54,10,18325,17,18330,32
2016-12-05 08:34:00,08:34:20,08:34:43,13256,13307,18325.0,17,18330.0,32,18325.0,18325.0,18325.0,18325.0,44,-36,18320,37,18325,2
2016-12-05 08:35:00,08:35:03,08:35:59,13319,13476,18320.0,33,18325.0,10,18320.0,18320.0,18305.0,18310.0,160,-36,18305,35,18315,38
2016-12-05 08:36:00,08:36:01,08:36:46,13483,13681,18305.0,21,18310.0,19,18305.0,18310.0,18305.0,18310.0,228,-195,18305,30,18310,10
2016-12-05 08:37:00,08:37:04,08:37:57,13707,13875,18305.0,29,18310.0,15,18310.0,18310.0,18300.0,18305.0,166,-47,18300,44,18305,30
2016-12-05 08:38:00,08:38:16,08:38:28,13898,13911,18300.0,45,18305.0,35,18300.0,18300.0,18300.0,18300.0,3,-3,18300,43,18305,39
2016-12-05 08:39:00,08:39:01,08:39:58,13940,14058,18300.0,42,18305.0,42,18300.0,18300.0,18290.0,18290.0,120,-120,18290,11,18295,71
2016-12-05 08:40:00,08:40:02,08:40:48,14064,14144,18290.0,16,18295.0,71,18290.0,18290.0,18290.0,18290.0,44,-44,18290,10,18295,84
2016-12-05 08:41:00,08:41:05,08:41:52,14163,14416,18290.0,20,18295.0,93,18290.0,18310.0,18285.0,18310.0,250,78,18310,58,18315,34
2016-12-05 08:42:00,08:42:05,08:42:57,14430,14734,18310.0,36,18315.0,38,18315.0,18335.0,18315.0,18325.0,283,31,18320,31,18330,42
2016-12-05 08:43:00,08:43:01,08:43:58,14738,14977,18320.0,31,18330.0,32,18325.0,18335.0,18325.0,18330.0,213,-68,18330,7,18335,39
2016-12-05 08:44:00,08:44:00,08:44:49,14980,15140,18330.0,7,18335.0,39,18330.0,18340.0,18330.0,18340.0,178,113,18335,73,18340,4
2016-12-05 08:45:00,08:45:00,08:45:30,15155,15253,18335.0,77,18340.0,7,18340.0,18340.0,18335.0,18335.0,103,-31,18330,36,18335,2
2016-12-05 08:46:00,08:46:06,08:46:43,15284,15452,18330.0,28,18335.0,25,18335.0,18335.0,18325.0,18325.0,206,22,18325,16,18330,17
2016-12-05 08:47:00,08:47:00,08:47:31,15470,15528,18325.0,25,18330.0,32,18330.0,18335.0,18330.0,18335.0,46,20,18330,34,18335,11
2016-12-05 08:48:00,08:48:12,08:48:31,15551,15628,18330.0,26,18335.0,13,18330.0,18330.0,18325.0,18325.0,70,5,18325,9,18330,24
2016-12-05 08:49:00,08:49:01,08:49:42,15643,15724,18325.0,24,18330.0,26,18330.0,18335.0,18330.0,18335.0,62,-28,18330,28,18335,14
2016-12-05 08:50:00,08:50:08,08:50:52,15746,15815,18330.0,33,18335.0,10,18330.0,18330.0,18330.0,18330.0,97,-97,18325,42,18335,48
2016-12-05 08:51:00,08:51:07,08:51:51,15833,16001,18325.0,16,18330.0,23,18325.0,18330.0,18320.0,18325.0,137,-61,18325,15,18330,26
2016-12-05 08:52:00,08:52:07,08:52:57,16016,16171,18325.0,17,18330.0,27,18330.0,18340.0,18330.0,18335.0,237,171,18335,7,18340,29
2016-12-05 08:53:00,08:53:04,08:53:50,16177,16340,18335.0,12,18340.0,29,18335.0,18340.0,18335.0,18340.0,133,-55,18335,42,18340,4
2016-12-05 08:54:00,08:54:05,08:54:59,16361,16486,18335.0,43,18340.0,17,18340.0,18350.0,18340.0,18350.0,117,73,18350,6,18355,35
2016-12-05 08:55:00,08:55:00,08:55:57,16487,16680,18350.0,3,18355.0,42,18355.0,18355.0,18345.0,18345.0,164,-7,18345,2,18350,35
2016-12-05 08:56:00,08:56:19,08:56:43,16696,16762,18345.0,9,18350.0,37,18345.0,18345.0,18345.0,18345.0,79,55,18345,1,18350,30
2016-12-05 08:57:00,08:57:19,08:57:51,16803,16912,18345.0,14,18350.0,34,18345.0,18345.0,18335.0,18340.0,108,-40,18335,25,18340,16
2016-12-05 08:58:00,08:58:16,08:58:44,16929,16993,18335.0,26,18340.0,30,18340.0,18345.0,18340.0,18345.0,60,34,18340,40,18350,31
2016-12-05 08:59:00,08:59:03,08:59:50,17007,17111,18345.0,12,18350.0,35,18345.0,18345.0,18340.0,18345.0,89,-1,18345,5,18350,28
2016-12-05 09:00:00,09:00:00,09:00:59,17129,17344,18345.0,7,18350.0,41,18345.0,18345.0,18335.0,18335.0,210,-38,18335,23,18340,16
2016-12-05 09:01:00,09:01:20,09:01:55,17374,17447,18335.0,21,18340.0,33,18335.0,18335.0,18335.0,18335.0,73,27,18335,19,18340,54
2016-12-05 09:02:00,09:02:04,09:02:57,17454,17545,18335.0,11,18340.0,54,18335.0,18340.0,18330.0,18340.0,76,44,18335,10,18335,1
2016-12-05 09:03:00,09:03:00,09:03:58,17548,17655,18335.0,12,18340.0,47,18335.0,18335.0,18330.0,18335.0,105,29,18335,5,18340,38
2016-12-05 09:04:00,09:04:09,09:04:15,17667,17704,18335.0,25,18340.0,35,18340.0,18340.0,18340.0,18340.0,41,23,18340,15,18345,18
2016-12-05 09:05:00,09:05:12,09:05:58,17737,17887,18340.0,37,18345.0,38,18345.0,18345.0,18335.0,18335.0,164,-30,18335,4,18340,35
2016-12-05 09:06:00,09:06:00,09:06:42,17892,17987,18335.0,6,18340.0,35,18340.0,18340.0,18340.0,18340.0,86,86,18335,40,18340,16
2016-12-05 09:07:00,09:07:05,09:07:57,18011,18181,18335.0,43,18340.0,21,18340.0,18350.0,18335.0,18345.0,147,26,18340,33,18345,19
2016-12-05 09:08:00,09:08:00,09:08:41,18190,18329,18340.0,38,18345.0,12,18345.0,18350.0,18345.0,18345.0,156,106,18345,22,18350,9
2016-12-05 09:09:00,09:09:26,09:09:57,18382,18455,18345.0,43,18350.0,30,18345.0,18350.0,18345.0,18350.0,89,-27,18350,11,18355,33
2016-12-05 09:10:00,09:10:00,09:10:57,18461,18563,18350.0,2,18355.0,33,18355.0,18355.0,18340.0,18340.0,58,-30,18335,34,18340,16
2016-12-05 09:11:00,09:11:21,09:11:47,18597,18685,18335.0,42,18340.0,17,18340.0,18340.0,18340.0,18340.0,63,17,18335,40,18340,12
2016-12-05 09:12:00,09:12:05,09:12:25,18703,18750,18335.0,43,18340.0,6,18340.0,18340.0,18340.0,18340.0,25,-19,18335,42,18340,10
2016-12-05 09:13:00,09:13:14,09:13:54,18776,18882,18335.0,46,18340.0,11,18340.0,18340.0,18340.0,18340.0,57,-21,18335,37,18340,3
2016-12-05 09:14:00,09:14:04,09:14:57,18890,18960,18335.0,38,18340.0,7,18340.0,18340.0,18340.0,18340.0,26,26,18335,38,18340,15
2016-12-05 09:15:00,09:15:15,09:15:56,18987,19120,18335.0,40,18340.0,19,18340.0,18340.0,18325.0,18330.0,142,-28,18325,25,18330,15
2016-12-05 09:16:00,09:16:00,09:16:48,19128,19295,18325.0,32,18330.0,26,18330.0,18330.0,18325.0,18330.0,176,0,18325,32,18335,31
2016-12-05 09:17:00,09:17:00,09:17:57,19311,19401,18330.0,16,18335.0,26,18330.0,18335.0,18330.0,18330.0,62,12,18325,36,18330,27
2016-12-05 09:18:00,09:18:00,09:18:37,19408,19503,18325.0,37,18330.0,34,18330.0,18330.0,18315.0,18315.0,101,-77,18315,13,18320,39
2016-12-05 09:19:00,09:19:00,09:19:58,19528,19637,18315.0,28,18320.0,43,18320.0,18320.0,18315.0,18315.0,85,7,18310,36,18315,28
2016-12-05 09:20:00,09:20:00,09:20:33,19642,19717,18310.0,40,18315.0,38,18315.0,18315.0,18310.0,18310.0,60,-42,18310,12,18315,33
2016-12-05 09:21:00,09:21:16,09:21:48,19746,19822,18310.0,29,18315.0,34,18310.0,18315.0,18305.0,18310.0,75,-35,18310,30,18315,26
2016-12-05 09:22:00,09:22:00,09:22:35,19841,19946,18310.0,12,18315.0,44,18310.0,18315.0,18310.0,18310.0,123,-31,18305,27,18315,54
2016-12-05 09:23:00,09:23:00,09:23:52,19969,20066,18305.0,36,18310.0,25,18310.0,18310.0,18305.0,18305.0,99,-10,18305,30,18310,14
2016-12-05 09:24:00,09:24:25,09:24:53,20091,20134,18305.0,32,18310.0,24,18310.0,18310.0,18305.0,18310.0,40,26,18305,40,18315,42
2016-12-05 09:25:00,09:25:01,09:25:57,20148,20212,18310.0,34,18315.0,15,18315.0,18315.0,18310.0,18315.0,22,6,18310,37,18315,14
2016-12-05 09:26:00,09:26:07,09:26:35,20225,20325,18310.0,34,18315.0,11,18310.0,18310.0,18310.0,18310.0,101,-95,18305,40,18315,43
2016-12-05 09:27:00,09:27:02,09:27:42,20343,20374,18310.0,35,18315.0,21,18315.0,18315.0,18315.0,18315.0,9,9,18310,34,18315,21
2016-12-05 09:28:00,09:28:05,09:28:38,20389,20568,18310.0,34,18315.0,30,18315.0,18320.0,18310.0,18320.0,200,120,18315,42,18320,31
2016-12-05 09:29:00,09:29:09,09:29:59,20593,20719,18315.0,62,18320.0,19,18320.0,18320.0,18300.0,18310.0,145,-39,18305,42,18310,5
2016-12-05 09:30:00,09:30:09,09:30:59,20734,20918,18305.0,26,18310.0,27,18305.0,18320.0,18305.0,18320.0,160,14,18320,1,18325,42
2016-12-05 09:31:00,09:31:00,09:31:52,20922,21033,18320.0,1,18325.0,45,18320.0,18325.0,18320.0,18325.0,54,-4,18325,5,18330,41
2016-12-05 09:32:00,09:32:01,09:32:54,21045,21194,18325.0,6,18330.0,41,18325.0,18325.0,18315.0,18315.0,121,-69,18310,40,18320,44
2016-12-05 09:33:00,09:33:00,09:33:49,21204,21286,18315.0,9,18320.0,48,18315.0,18320.0,18315.0,18320.0,60,39,18315,24,18320,11
2016-12-05 09:34:00,09:34:17,09:34:57,21308,21425,18315.0,28,18320.0,28,18320.0,18320.0,18315.0,18320.0,104,-2,18315,39,18320,11
2016-12-05 09:35:00,09:35:03,09:35:59,21438,21614,18315.0,15,18320.0,50,18315.0,18315.0,18305.0,18310.0,166,10,18310,30,18315,23
2016-12-05 09:36:00,09:36:00,09:36:59,21620,21737,18310.0,32,18315.0,21,18310.0,18310.0,18305.0,18310.0,85,31,18305,34,18310,8
2016-12-05 09:37:00,09:37:02,09:37:45,21745,21784,18305.0,38,18310.0,2,18310.0,18310.0,18305.0,18305.0,17,-13,18300,22,18305,28
2016-12-05 09:38:00,09:38:03,09:38:58,21800,21932,18300.0,43,18305.0,11,18300.0,18320.0,18300.0,18315.0,100,49,18310,33,18315,23
2016-12-05 09:39:00,09:39:02,09:39:57,21941,22030,18310.0,47,18315.0,17,18315.0,18315.0,18315.0,18315.0,66,-34,18310,43,18315,9
2016-12-05 09:40:00,09:40:00,09:40:58,22038,22108,18310.0,43,18315.0,6,18315.0,18315.0,18315.0,18315.0,29,19,18310,38,18315,14
2016-12-05 09:41:00,09:41:01,09:41:59,22112,22244,18310.0,38,18315.0,13,18315.0,18315.0,18305.0,18305.0,91,-33,18300,40,18305,21
2016-12-05 09:42:00,09:42:23,09:42:58,22252,22320,18300.0,40,18305.0,29,18305.0,18310.0,18305.0,18310.0,71,29,18305,25,18310,44
2016-12-05 09:43:00,09:43:33,09:43:42,22336,22361,18305.0,10,18310.0,43,18305.0,18305.0,18305.0,18305.0,31,7,18300,45,18310,45
2016-12-05 09:44:00,09:44:03,09:44:32,22373,22479,18305.0,5,18310.0,50,18305.0,18310.0,18305.0,18310.0,126,76,18310,2,18315,31
2016-12-05 09:45:00,09:45:01,09:45:57,22498,22610,18310.0,22,18315.0,30,18315.0,18315.0,18310.0,18310.0,105,-38,18305,27,18310,7
2016-12-05 09:46:00,09:46:01,09:46:39,22617,22676,18305.0,42,18310.0,6,18310.0,18315.0,18310.0,18315.0,71,40,18315,3,18320,35
2016-12-05 09:47:00,09:47:13,09:47:50,22693,22758,18315.0,14,18320.0,36,18320.0,18320.0,18315.0,18320.0,72,64,18315,38,18320,12
2016-12-05 09:48:00,09:48:28,09:48:57,22779,22842,18315.0,29,18320.0,32,18315.0,18315.0,18315.0,18315.0,60,-39,18310,25,18315,26
2016-12-05 09:49:00,09:49:00,09:49:57,22849,23066,18310.0,40,18315.0,14,18315.0,18325.0,18310.0,18325.0,181,75,18320,18,18325,13
2016-12-05 09:50:00,09:50:08,09:50:37,23075,23150,18320.0,23,18325.0,26,18325.0,18325.0,18325.0,18325.0,69,-63,18325,2,18330,37
2016-12-05 09:51:00,09:51:02,09:51:59,23172,23317,18325.0,6,18330.0,39,18325.0,18325.0,18320.0,18320.0,87,-39,18320,28,18325,17
2016-12-05 09:52:00,09:52:10,09:52:58,23328,23391,18320.0,6,18325.0,32,18320.0,18320.0,18320.0,18320.0,39,-39,18315,43,18325,37
2016-12-05 09:53:00,09:53:10,09:53:40,23404,23498,18320.0,4,18325.0,36,18325.0,18325.0,18320.0,18320.0,76,6,18315,43,18325,52
2016-12-05 09:54:00,09:54:12,09:54:36,23531,23565,18320.0,22,18325.0,33,18320.0,18320.0,18315.0,18320.0,34,10,18320,24,18325,18
2016-12-05 09:55:00,09:55:00,09:55:53,23591,23670,18320.0,22,18325.0,17,18320.0,18325.0,18320.0,18325.0,43,7,18320,31,18325,8
2016-12-05 09:56:00,09:56:04,09:56:45,23682,23727,18320.0,33,18325.0,11,18325.0,18325.0,18325.0,18325.0,15,0,18325,2,18325,12
2016-12-05 09:57:00,09:57:00,09:57:00,0,0,0.0,0,0.0,0,18325.0,18325.0,18325.0,18325.0,0,0,0,0,0,0
2016-12-05 09:58:00,09:58:28,09:58:51,23778,23844,18320.0,29,18325.0,28,18325.0,18325.0,18315.0,18315.0,71,-54,18310,29,18315,11
2016-12-05 09:59:00,09:59:31,09:59:31,23876,23878,18310.0,33,18315.0,24,18310.0,18310.0,18310.0,18310.0,4,-4,18310,28,18315,25
2016-12-05 10:00:00,10:00:00,10:00:51,23903,24027,18310.0,31,18315.0,19,18315.0,18315.0,18310.0,18310.0,132,-42,18310,25,18315,15
2016-12-05 10:01:00,10:01:08,10:01:48,24040,24213,18310.0,23,18315.0,28,18315.0,18320.0,18315.0,18320.0,181,139,18315,5,18320,46
2016-12-05 10:02:00,10:02:12,10:02:57,24247,24453,18315.0,39,18320.0,42,18320.0,18325.0,18320.0,18325.0,198,3,18320,31,18325,6
2016-12-05 10:03:00,10:03:11,10:03:51,24470,24581,18320.0,13,18325.0,35,18320.0,18325.0,18320.0,18325.0,92,38,18325,10,18330,34
2016-12-05 10:04:00,10:04:18,10:04:43,24605,24644,18325.0,13,18330.0,31,18325.0,18330.0,18325.0,18325.0,31,-28,18320,31,18325,4
2016-12-05 10:05:00,10:05:08,10:05:55,24657,24769,18320.0,31,18325.0,10,18325.0,18325.0,18325.0,18325.0,90,-54,18325,9,18330,38
2016-12-05 10:06:00,10:06:05,10:06:52,24781,24819,18325.0,12,18330.0,34,18325.0,18335.0,18325.0,18335.0,23,11,18330,44,18335,10
2016-12-05 10:07:00,10:07:21,10:07:56,24839,24863,18330.0,57,18335.0,20,18335.0,18335.0,18330.0,18330.0,13,11,18330,74,18335,15
2016-12-05 10:08:00,10:08:03,10:08:50,24867,24896,18330.0,73,18335.0,15,18335.0,18335.0,18335.0,18335.0,6,6,18330,76,18335,16
2016-12-05 10:09:00,10:09:05,10:09:48,24902,24997,18330.0,78,18335.0,16,18335.0,18335.0,18330.0,18330.0,91,-59,18330,6,18335,38
2016-12-05 10:10:00,10:10:18,10:10:47,25012,25090,18330.0,41,18335.0,31,18330.0,18330.0,18325.0,18330.0,74,-2,18330,29,18335,17
2016-12-05 10:11:00,10:11:10,10:11:55,25106,25191,18330.0,30,18335.0,41,18330.0,18330.0,18330.0,18330.0,95,-27,18325,43,18335,48
2016-12-05 10:12:00,10:12:00,10:12:50,25199,25262,18330.0,6,18335.0,45,18330.0,18335.0,18330.0,18330.0,55,41,18325,45,18330,13
2016-12-05 10:13:00,10:13:01,10:13:51,25269,25339,18325.0,50,18330.0,15,18330.0,18335.0,18330.0,18335.0,68,50,18335,2,18340,48
2016-12-05 10:14:00,10:14:09,10:14:58,25350,25390,18335.0,6,18340.0,44,18335.0,18335.0,18335.0,18335.0,14,8,18330,40,18335,8
2016-12-05 10:15:00,10:15:26,10:15:56,25406,25466,18330.0,41,18335.0,14,18330.0,18330.0,18325.0,18325.0,87,-87,18325,33,18330,38
2016-12-05 10:16:00,10:16:04,10:16:08,25472,25502,18325.0,33,18330.0,39,18330.0,18330.0,18330.0,18330.0,44,-18,18325,16,18330,35
2016-12-05 10:17:00,10:17:00,10:17:10,25533,25566,18325.0,38,18330.0,38,18325.0,18325.0,18325.0,18325.0,24,-6,18320,45,18330,45
2016-12-05 10:18:00,10:18:17,10:18:27,25597,25605,18320.0,42,18325.0,27,18325.0,18325.0,18325.0,18325.0,3,3,18320,44,18325,13
2016-12-05 10:19:00,10:19:21,10:19:28,25641,25693,18320.0,48,18325.0,16,18320.0,18320.0,18320.0,18320.0,70,-24,18320,39,18325,17
2016-12-05 10:20:00,10:20:09,10:20:54,25710,25784,18320.0,40,18325.0,16,18320.0,18325.0,18320.0,18320.0,48,-16,18315,53,18325,50
2016-12-05 10:21:00,10:21:14,10:21:55,25797,25880,18315.0,52,18320.0,9,18320.0,18320.0,18315.0,18315.0,87,23,18310,37,18320,51
2016-12-05 10:22:00,10:22:12,10:22:44,25891,25935,18315.0,5,18320.0,56,18315.0,18315.0,18315.0,18315.0,23,1,18310,38,18320,48
2016-12-05 10:23:00,10:23:09,10:23:47,25949,26012,18315.0,14,18320.0,56,18315.0,18315.0,18315.0,18315.0,40,2,18310,34,18315,2
2016-12-05 10:24:00,10:24:01,10:24:36,26019,26119,18310.0,33,18315.0,3,18315.0,18320.0,18315.0,18320.0,73,31,18315,46,18325,50
2016-12-05 10:25:00,10:25:01,10:25:50,26141,26252,18320.0,46,18325.0,11,18320.0,18320.0,18315.0,18315.0,133,-123,18310,42,18320,48
2016-12-05 10:26:00,10:26:06,10:26:47,26268,26331,18315.0,1,18320.0,49,18315.0,18320.0,18315.0,18315.0,46,-26,18315,6,18320,52
2016-12-05 10:27:00,10:27:07,10:27:59,26340,26435,18315.0,9,18320.0,52,18315.0,18315.0,18315.0,18315.0,59,-21,18310,49,18315,3
2016-12-05 10:28:00,10:28:00,10:28:41,26436,26480,18315.0,7,18320.0,47,18315.0,18315.0,18315.0,18315.0,20,-14,18315,4,18320,45
2016-12-05 10:29:00,10:29:09,10:29:59,26508,26667,18315.0,15,18320.0,38,18315.0,18320.0,18305.0,18305.0,128,-12,18305,23,18310,26
2016-12-05 10:30:00,10:30:00,10:30:16,26670,26706,18305.0,23,18310.0,26,18305.0,18310.0,18305.0,18310.0,24,10,18305,47,18315,44
2016-12-05 10:31:00,10:31:00,10:31:27,26725,26772,18305.0,25,18310.0,20,18305.0,18310.0,18305.0,18305.0,34,22,18305,29,18310,3
2016-12-05 10:32:00,10:32:00,10:32:21,26790,26829,18305.0,24,18310.0,13,18305.0,18305.0,18305.0,18305.0,34,-34,18305,17,18310,20
2016-12-05 10:33:00,10:33:00,10:33:50,26846,26926,18305.0,24,18310.0,20,18305.0,18315.0,18305.0,18315.0,48,42,18310,25,18315,40
2016-12-05 10:34:00,10:34:08,10:34:13,26931,26954,18310.0,26,18315.0,44,18315.0,18315.0,18315.0,18315.0,46,42,18315,18,18320,19
2016-12-05 10:35:00,10:35:53,10:35:58,26989,27005,18315.0,20,18320.0,25,18315.0,18315.0,18315.0,18315.0,23,-15,18310,33,18320,27
2016-12-05 10:36:00,10:36:00,10:36:59,27009,27059,18310.0,33,18315.0,2,18310.0,18320.0,18310.0,18315.0,30,-6,18315,5,18320,26
2016-12-05 10:37:00,10:37:03,10:37:37,27064,27097,18315.0,5,18320.0,26,18315.0,18315.0,18310.0,18310.0,11,-7,18305,38,18310,15
2016-12-05 10:38:00,10:38:00,10:38:27,27108,27159,18305.0,38,18310.0,19,18305.0,18305.0,18305.0,18305.0,44,-15,18305,1,18310,21
2016-12-05 10:39:00,10:39:00,10:39:48,27183,27245,18305.0,16,18310.0,19,18305.0,18305.0,18305.0,18305.0,24,-7,18300,25,18310,17
2016-12-05 10:40:00,10:40:00,10:40:00,27266,27274,18305.0,12,18310.0,16,18305.0,18305.0,18305.0,18305.0,13,-13,18305,6,18310,17
2016-12-05 10:41:00,10:41:02,10:41:57,27312,27370,18305.0,23,18310.0,20,18310.0,18310.0,18310.0,18310.0,25,15,18305,28,18310,1
2016-12-05 10:42:00,10:42:49,10:42:49,27384,27384,18305.0,32,18310.0,16,18305.0,18305.0,18305.0,18305.0,1,-1,18305,31,18310,15
2016-12-05 10:43:00,10:43:41,10:43:42,27401,27407,18305.0,37,18310.0,6,18310.0,18310.0,18310.0,18310.0,7,5,18305,35,18310,16
2016-12-05 10:44:00,10:44:25,10:44:50,27426,27451,18305.0,40,18310.0,2,18310.0,18310.0,18310.0,18310.0,12,2,18310,2,18315,24
2016-12-05 10:45:00,10:45:17,10:45:43,27480,27514,18310.0,22,18315.0,13,18315.0,18315.0,18315.0,18315.0,29,-4,18310,23,18320,26
2016-12-05 10:46:00,10:46:23,10:46:46,27526,27560,18310.0,23,18315.0,4,18315.0,18315.0,18315.0,18315.0,27,-15,18315,7,18320,26
2016-12-05 10:47:00,10:47:03,10:47:41,27572,27657,18315.0,4,18320.0,26,18315.0,18315.0,18310.0,18310.0,66,-58,18305,28,18315,58
2016-12-05 10:48:00,10:48:40,10:48:40,27681,27684,18310.0,14,18315.0,48,18310.0,18310.0,18310.0,18310.0,5,-5,18310,9,18315,51
2016-12-05 10:49:00,10:49:09,10:49:56,27697,27765,18310.0,4,18315.0,55,18315.0,18315.0,18305.0,18305.0,63,-51,18300,19,18310,30
2016-12-05 10:50:00,10:50:01,10:50:58,27775,27886,18300.0,23,18310.0,29,18305.0,18315.0,18305.0,18315.0,108,-11,18310,22,18320,28
2016-12-05 10:51:00,10:51:51,10:51:51,27900,27900,18310.0,22,18315.0,14,18315.0,18315.0,18315.0,18315.0,1,1,18310,18,18315,10
2016-12-05 10:52:00,10:52:22,10:52:46,27913,27935,18310.0,18,18315.0,18,18310.0,18310.0,18310.0,18310.0,21,-11,18305,11,18310,14
2016-12-05 10:53:00,10:53:39,10:53:40,27949,27965,18305.0,13,18310.0,16,18305.0,18305.0,18305.0,18305.0,18,-18,18305,8,18310,19
2016-12-05 10:54:00,10:54:42,10:54:42,27980,27980,18305.0,12,18310.0,18,18305.0,18305.0,18305.0,18305.0,1,-1,18305,11,18310,17
2016-12-05 10:55:00,10:55:11,10:55:55,27988,28026,18305.0,12,18310.0,17,18310.0,18310.0,18305.0,18310.0,28,12,18305,15,18310,20
2016-12-05 10:56:00,10:56:34,10:56:34,28045,28045,18305.0,14,18310.0,22,18310.0,18310.0,18310.0,18310.0,2,2,18305,16,18310,20
2016-12-05 10:57:00,10:57:00,10:57:00,0,0,0.0,0,0.0,0,18310.0,18310.0,18310.0,18310.0,0,0,0,0,0,0
2016-12-05 10:58:00,10:58:42,10:58:43,28076,28092,18305.0,11,18310.0,22,18305.0,18305.0,18305.0,18305.0,21,-1,18305,13,18310,19
2016-12-05 10:59:00,10:59:27,10:59:59,28107,28169,18305.0,32,18310.0,37,18305.0,18310.0,18305.0,18310.0,58,38,18310,10,18315,21
2016-12-05 11:00:00,11:00:00,11:00:59,28173,28266,18310.0,9,18315.0,21,18310.0,18310.0,18300.0,18305.0,60,4,18300,26,18310,23
2016-12-05 11:01:00,11:01:02,11:01:13,28271,28279,18300.0,25,18305.0,2,18305.0,18305.0,18305.0,18305.0,6,6,18300,21,18305,2
2016-12-05 11:02:00,11:02:00,11:02:00,0,0,0.0,0,0.0,0,18305.0,18305.0,18305.0,18305.0,0,0,0,0,0,0
2016-12-05 11:03:00,11:03:20,11:03:59,28319,28419,18300.0,27,18305.0,13,18305.0,18315.0,18305.0,18315.0,114,94,18310,30,18320,25
2016-12-05 11:04:00,11:04:00,11:04:33,28422,28449,18310.0,30,18320.0,25,18315.0,18315.0,18315.0,18315.0,17,-13,18310,29,18315,3
2016-12-05 11:05:00,11:05:10,11:05:50,28465,28493,18310.0,29,18315.0,8,18315.0,18315.0,18315.0,18315.0,15,15,18310,34,18315,8
2016-12-05 11:06:00,11:06:03,11:06:54,28500,28544,18310.0,34,18315.0,9,18315.0,18315.0,18315.0,18315.0,38,-24,18310,40,18320,34
2016-12-05 11:07:00,11:07:19,11:07:47,28555,28594,18315.0,7,18320.0,36,18315.0,18320.0,18315.0,18320.0,37,23,18320,23,18325,21
2016-12-05 11:08:00,11:08:26,11:08:26,28613,28613,18320.0,22,18325.0,23,18325.0,18325.0,18325.0,18325.0,1,1,18320,24,18325,22
2016-12-05 11:09:00,11:09:01,11:09:31,28634,28662,18320.0,27,18325.0,25,18325.0,18325.0,18320.0,18320.0,29,-17,18315,26,18320,17
2016-12-05 11:10:00,11:10:01,11:10:08,28671,28705,18315.0,28,18320.0,15,18320.0,18320.0,18320.0,18320.0,31,7,18315,27,18325,24
2016-12-05 11:11:00,11:11:02,11:11:57,28735,28794,18320.0,14,18325.0,25,18320.0,18320.0,18315.0,18315.0,45,-45,18315,3,18320,23
2016-12-05 11:12:00,11:12:09,11:12:10,28802,28811,18315.0,6,18320.0,23,18315.0,18315.0,18315.0,18315.0,9,-7,18310,30,18315,7
2016-12-05 11:13:00,11:13:44,11:13:44,28850,28850,18310.0,24,18315.0,24,18315.0,18315.0,18315.0,18315.0,1,1,18310,23,18315,23
2016-12-05 11:14:00,11:14:52,11:14:53,28872,28901,18310.0,28,18315.0,20,18315.0,18315.0,18315.0,18315.0,35,25,18315,11,18320,27
2016-12-05 11:15:00,11:15:03,11:15:05,28911,28929,18315.0,15,18320.0,28,18315.0,18315.0,18315.0,18315.0,15,-14,18310,22,18315,15
2016-12-05 11:16:00,11:16:02,11:16:23,28951,28987,18310.0,36,18315.0,11,18315.0,18315.0,18315.0,18315.0,21,-9,18315,1,18320,28
2016-12-05 11:17:00,11:17:00,11:17:58,29006,29090,18310.0,29,18315.0,15,18310.0,18315.0,18310.0,18315.0,49,-3,18310,23,18315,11
2016-12-05 11:18:00,11:18:04,11:18:36,29100,29142,18310.0,23,18315.0,10,18315.0,18315.0,18315.0,18315.0,25,-1,18310,26,18320,25
2016-12-05 11:19:00,11:19:12,11:19:40,29164,29190,18315.0,12,18320.0,25,18315.0,18315.0,18315.0,18315.0,16,-14,18315,1,18320,24
2016-12-05 11:20:00,11:20:31,11:20:53,29210,29236,18315.0,13,18320.0,26,18320.0,18320.0,18320.0,18320.0,14,14,18315,23,18320,12
2016-12-05 11:21:00,11:21:27,11:21:55,29254,29314,18315.0,26,18320.0,8,18320.0,18325.0,18320.0,18320.0,37,-9,18315,16,18320,7
2016-12-05 11:22:00,11:22:00,11:22:00,0,0,0.0,0,0.0,0,18320.0,18320.0,18320.0,18320.0,0,0,0,0,0,0
2016-12-05 11:23:00,11:23:15,11:23:26,29345,29377,18315.0,10,18320.0,20,18315.0,18320.0,18315.0,18320.0,27,11,18315,24,18320,1
2016-12-05 11:24:00,11:24:32,11:24:42,29402,29437,18315.0,11,18320.0,17,18320.0,18320.0,18320.0,18320.0,30,14,18315,23,18325,25
2016-12-05 11:25:00,11:25:00,11:25:00,0,0,0.0,0,0.0,0,18320.0,18320.0,18320.0,18320.0,0,0,0,0,0,0
2016-12-05 11:26:00,11:26:59,11:26:59,29503,29503,18315.0,22,18320.0,13,18320.0,18320.0,18320.0,18320.0,1,1,18315,18,18320,16
2016-12-05 11:27:00,11:27:01,11:27:48,29508,29555,18315.0,12,18320.0,25,18315.0,18315.0,18315.0,18315.0,38,-28,18310,25,18315,6
2016-12-05 11:28:00,11:28:01,11:28:27,29560,29586,18310.0,24,18315.0,5,18315.0,18320.0,18315.0,18320.0,23,19,18315,26,18325,22
2016-12-05 11:29:00,11:29:05,11:29:29,29608,29619,18315.0,18,18320.0,15,18315.0,18320.0,18315.0,18320.0,8,-6,18315,14,18320,17
2016-12-05 11:30:00,11:30:00,11:30:57,29634,29813,18315.0,38,18320.0,38,18315.0,18325.0,18310.0,18315.0,148,10,18315,7,18320,38
2016-12-05 11:31:00,11:31:18,11:31:48,29829,29859,18315.0,36,18320.0,27,18320.0,18320.0,18315.0,18315.0,13,7,18310,40,18315,13
2016-12-05 11:32:00,11:32:21,11:32:43,29874,29924,18310.0,39,18315.0,17,18310.0,18310.0,18305.0,18305.0,75,-75,18305,37,18310,27
2016-12-05 11:33:00,11:33:25,11:33:49,29956,29978,18305.0,59,18310.0,28,18305.0,18310.0,18305.0,18305.0,12,-10,18305,24,18310,56
2016-12-05 11:34:00,11:34:10,11:34:59,29992,30119,18305.0,49,18310.0,56,18305.0,18310.0,18305.0,18310.0,128,28,18305,36,18315,53
2016-12-05 11:35:00,11:35:02,11:35:29,30128,30175,18305.0,40,18310.0,4,18310.0,18310.0,18310.0,18310.0,22,-8,18305,65,18310,2
2016-12-05 11:36:00,11:36:31,11:36:53,30200,30322,18305.0,56,18310.0,47,18310.0,18310.0,18295.0,18295.0,149,-91,18290,43,18295,4
2016-12-05 11:37:00,11:37:01,11:37:55,30337,30586,18290.0,43,18295.0,21,18290.0,18290.0,18270.0,18280.0,294,-150,18275,10,18280,44
2016-12-05 11:38:00,11:38:11,11:38:57,30612,30774,18275.0,34,18280.0,43,18275.0,18280.0,18275.0,18280.0,165,10,18280,37,18285,48
2016-12-05 11:39:00,11:39:00,11:39:58,30776,30924,18275.0,161,18285.0,48,18280.0,18280.0,18275.0,18280.0,131,-7,18280,14,18285,59
2016-12-05 11:40:00,11:40:01,11:40:56,30933,31125,18280.0,23,18285.0,52,18280.0,18280.0,18265.0,18270.0,202,-46,18270,6,18275,51
2016-12-05 11:41:00,11:41:01,11:41:23,31135,31258,18265.0,67,18270.0,4,18270.0,18270.0,18265.0,18270.0,160,-50,18265,40,18270,26
2016-12-05 11:42:00,11:42:00,11:42:59,31293,31527,18265.0,48,18270.0,27,18265.0,18275.0,18260.0,18260.0,297,-1,18260,16,18265,25
2016-12-05 11:43:00,11:43:00,11:43:55,31528,31722,18265.0,10,18270.0,51,18260.0,18265.0,18255.0,18260.0,385,-355,18255,28,18260,193
2016-12-05 11:44:00,11:44:00,11:44:39,31728,31862,18255.0,28,18260.0,204,18255.0,18265.0,18255.0,18265.0,292,194,18265,3,18265,10
2016-12-05 11:45:00,11:45:01,11:45:46,31885,31992,18260.0,41,18265.0,11,18260.0,18265.0,18260.0,18265.0,68,14,18260,43,18265,5
2016-12-05 11:46:00,11:46:04,11:46:59,32015,32424,18260.0,44,18265.0,10,18260.0,18260.0,18225.0,18225.0,609,-523,18225,19,18230,43
2016-12-05 11:47:00,11:47:00,11:47:56,32429,32675,18225.0,15,18230.0,52,18225.0,18240.0,18225.0,18235.0,232,81,18230,45,18240,27
2016-12-05 11:48:00,11:48:20,11:48:47,32702,32775,18235.0,15,18240.0,22,18240.0,18245.0,18240.0,18245.0,47,41,18240,58,18245,12
2016-12-05 11:49:00,11:49:05,11:49:54,32792,32959,18240.0,69,18245.0,24,18240.0,18240.0,18235.0,18235.0,198,-127,18235,14,18240,27
2016-12-05 11:50:00,11:50:00,11:50:59,32969,33069,18235.0,28,18240.0,17,18240.0,18240.0,18235.0,18235.0,68,0,18235,5,18240,48
2016-12-05 11:51:00,11:51:02,11:51:40,33075,33153,18235.0,5,18240.0,48,18235.0,18240.0,18230.0,18235.0,81,-75,18235,16,18240,57
2016-12-05 11:52:00,11:52:10,11:52:40,33174,33216,18235.0,40,18240.0,63,18235.0,18235.0,18235.0,18235.0,37,-37,18235,2,18240,58
2016-12-05 11:53:00,11:53:08,11:53:42,33230,33272,18235.0,28,18240.0,53,18240.0,18240.0,18235.0,18235.0,15,-5,18235,16,18240,75
2016-12-05 11:54:00,11:54:01,11:54:54,33286,33341,18235.0,51,18240.0,72,18235.0,18240.0,18235.0,18240.0,17,-11,18235,77,18240,65
2016-12-05 11:55:00,11:55:01,11:55:57,33344,33619,18235.0,77,18240.0,65,18235.0,18250.0,18235.0,18245.0,304,139,18245,32,18250,77
2016-12-05 11:56:00,11:56:02,11:56:52,33629,33837,18245.0,45,18250.0,87,18245.0,18245.0,18230.0,18240.0,299,45,18240,34,18245,23
2016-12-05 11:57:00,11:57:02,11:57:59,33844,33991,18240.0,37,18245.0,22,18240.0,18250.0,18240.0,18250.0,127,-15,18245,34,18250,20
2016-12-05 11:58:00,11:58:03,11:58:57,34003,34078,18245.0,27,18250.0,28,18245.0,18250.0,18245.0,18245.0,48,-46,18240,44,18250,43
2016-12-05 11:59:00,11:59:01,11:59:40,34084,34176,18240.0,45,18245.0,8,18245.0,18250.0,18245.0,18250.0,75,13,18245,40,18255,29
2016-12-05 12:00:00,12:00:02,12:00:56,34196,34317,18245.0,42,18250.0,5,18250.0,18250.0,18245.0,18250.0,91,-31,18250,12,18255,34
2016-12-05 12:01:00,12:01:00,12:01:56,34328,34468,18250.0,4,18255.0,33,18250.0,18250.0,18240.0,18250.0,143,-7,18245,72,18255,41
2016-12-05 12:02:00,12:02:10,12:02:34,34479,34576,18245.0,61,18250.0,26,18250.0,18250.0,18250.0,18250.0,106,72,18250,3,18255,32
2016-12-05 12:03:00,12:03:06,12:03:51,34604,34706,18250.0,20,18255.0,26,18250.0,18250.0,18250.0,18250.0,69,-66,18250,27,18255,21
2016-12-05 12:04:00,12:04:20,12:04:38,34721,34780,18250.0,29,18255.0,19,18255.0,18255.0,18255.0,18255.0,64,48,18250,33,18255,9
2016-12-05 12:05:00,12:05:02,12:05:30,34791,34820,18250.0,35,18255.0,14,18255.0,18255.0,18255.0,18255.0,23,13,18255,17,18260,42
2016-12-05 12:06:00,12:06:47,12:06:59,34852,34881,18255.0,41,18260.0,36,18255.0,18260.0,18255.0,18255.0,28,-22,18250,42,18255,7
2016-12-05 12:07:00,12:07:00,12:07:22,34884,34969,18250.0,42,18255.0,7,18255.0,18255.0,18255.0,18255.0,95,7,18255,4,18260,34
2016-12-05 12:08:00,12:08:17,12:08:41,35011,35036,18255.0,16,18260.0,48,18260.0,18260.0,18255.0,18255.0,20,-18,18255,11,18260,48
2016-12-05 12:09:00,12:09:14,12:09:55,35051,35166,18255.0,40,18260.0,48,18260.0,18265.0,18260.0,18265.0,111,103,18260,41,18265,24
2016-12-05 12:10:00,12:10:00,12:10:50,35173,35394,18260.0,45,18265.0,23,18265.0,18270.0,18265.0,18265.0,204,38,18260,47,18265,15
2016-12-05 12:11:00,12:11:08,12:11:51,35413,35488,18260.0,42,18265.0,19,18265.0,18275.0,18265.0,18270.0,66,33,18265,27,18270,14
2016-12-05 12:12:00,12:12:50,12:12:53,35515,35535,18265.0,33,18270.0,16,18265.0,18275.0,18265.0,18270.0,23,15,18270,28,18275,45
2016-12-05 12:13:00,12:13:12,12:13:52,35551,35640,18270.0,39,18275.0,44,18270.0,18270.0,18265.0,18265.0,90,-59,18265,18,18270,24
2016-12-05 12:14:00,12:14:26,12:14:58,35656,35860,18265.0,22,18270.0,24,18265.0,18265.0,18260.0,18260.0,225,-153,18255,25,18260,12
2016-12-05 12:15:00,12:15:18,12:15:18,35880,35887,18255.0,23,18260.0,11,18260.0,18260.0,18260.0,18260.0,11,11,18255,24,18265,32
2016-12-05 12:16:00,12:16:03,12:16:59,35912,36041,18255.0,24,18260.0,14,18260.0,18265.0,18260.0,18265.0,140,30,18260,45,18265,2
2016-12-05 12:17:00,12:17:00,12:17:56,36044,36166,18260.0,45,18265.0,2,18265.0,18265.0,18255.0,18255.0,129,-125,18255,18,18260,18
2016-12-05 12:18:00,12:18:11,12:18:11,36175,36175,18255.0,26,18260.0,17,18260.0,18260.0,18260.0,18260.0,1,1,18255,27,18260,13
2016-12-05 12:19:00,12:19:15,12:19:54,36219,36264,18255.0,27,18260.0,28,18255.0,18255.0,18255.0,18255.0,33,-33,18255,14,18260,27
2016-12-05 12:20:00,12:20:11,12:20:25,36273,36298,18255.0,18,18260.0,31,18255.0,18255.0,18255.0,18255.0,26,-4,18250,48,18260,26
2016-12-05 12:21:00,12:21:15,12:21:38,36324,36379,18255.0,20,18260.0,23,18260.0,18260.0,18260.0,18260.0,64,57,18255,30,18260,4
2016-12-05 12:22:00,12:22:02,12:22:58,36404,36481,18255.0,28,18260.0,37,18255.0,18255.0,18255.0,18255.0,67,-35,18250,40,18260,43
2016-12-05 12:23:00,12:23:04,12:23:33,36492,36508,18250.0,41,18255.0,6,18255.0,18255.0,18255.0,18255.0,5,5,18250,47,18260,44
2016-12-05 12:24:00,12:24:00,12:24:00,0,0,0.0,0,0.0,0,18255.0,18255.0,18255.0,18255.0,0,0,0,0,0,0
2016-12-05 12:25:00,12:25:15,12:25:58,36549,36577,18250.0,46,18255.0,28,18255.0,18255.0,18250.0,18255.0,10,8,18250,47,18255,19
2016-12-05 12:26:00,12:26:53,12:26:53,36610,36610,18250.0,60,18255.0,25,18250.0,18250.0,18250.0,18250.0,1,-1,18250,59,18255,24
2016-12-05 12:27:00,12:27:45,12:27:45,36633,36634,18250.0,60,18255.0,22,18255.0,18255.0,18255.0,18255.0,2,2,18250,57,18255,19
2016-12-05 12:28:00,12:28:04,12:28:56,36650,36710,18250.0,64,18255.0,21,18255.0,18255.0,18255.0,18255.0,57,-15,18255,52,18260,43
2016-12-05 12:29:00,12:29:31,12:29:52,36733,36788,18255.0,63,18260.0,52,18260.0,18260.0,18255.0,18255.0,69,-39,18250,46,18255,10
2016-12-05 12:30:00,12:30:23,12:30:58,36803,36829,18250.0,46,18255.0,15,18255.0,18255.0,18250.0,18255.0,4,2,18250,44,18255,12
2016-12-05 12:31:00,12:31:31,12:31:55,36857,36873,18250.0,47,18255.0,17,18250.0,18250.0,18250.0,18250.0,3,-3,18250,45,18255,19
2016-12-05 12:32:00,12:32:13,12:32:50,36886,36903,18250.0,45,18255.0,19,18255.0,18255.0,18255.0,18255.0,3,3,18250,47,18255,23
2016-12-05 12:33:00,12:33:25,12:33:59,36929,36954,18250.0,45,18255.0,23,18255.0,18255.0,18255.0,18255.0,4,4,18250,42,18255,49
2016-12-05 12:34:00,12:34:39,12:34:58,36969,37047,18250.0,43,18255.0,46,18250.0,18250.0,18240.0,18240.0,87,-87,18240,15,18245,99
2016-12-05 12:35:00,12:35:28,12:35:32,37078,37102,18240.0,50,18245.0,94,18245.0,18245.0,18245.0,18245.0,88,80,18245,15,18250,65
2016-12-05 12:36:00,12:36:39,12:36:51,37123,37133,18245.0,30,18250.0,62,18250.0,18250.0,18245.0,18245.0,11,-9,18245,21,18250,64
2016-12-05 12:37:00,12:37:11,12:37:50,37141,37185,18245.0,23,18250.0,65,18250.0,18250.0,18245.0,18250.0,65,51,18245,51,18250,32
2016-12-05 12:38:00,12:38:07,12:38:39,37195,37225,18245.0,50,18250.0,41,18250.0,18250.0,18245.0,18245.0,7,-3,18245,43,18250,33
2016-12-05 12:39:00,12:39:25,12:39:43,37245,37311,18245.0,42,18250.0,29,18250.0,18250.0,18250.0,18250.0,92,6,18245,43,18255,47
2016-12-05 12:40:00,12:40:03,12:40:55,37324,37394,18245.0,42,18250.0,30,18245.0,18245.0,18240.0,18245.0,80,-78,18240,41,18245,33
2016-12-05 12:41:00,12:41:22,12:41:45,37413,37448,18240.0,38,18245.0,40,18240.0,18240.0,18235.0,18240.0,42,-40,18235,36,18240,46
2016-12-05 12:42:00,12:42:15,12:42:55,37463,37617,18235.0,34,18240.0,46,18235.0,18260.0,18235.0,18255.0,218,42,18255,26,18260,49
2016-12-05 12:43:00,12:43:04,12:43:53,37625,37771,18255.0,27,18260.0,49,18255.0,18255.0,18250.0,18255.0,182,-64,18250,43,18260,48
2016-12-05 12:44:00,12:44:00,12:44:47,37776,37980,18255.0,12,18260.0,48,18260.0,18265.0,18260.0,18260.0,273,55,18260,23,18265,27
2016-12-05 12:45:00,12:45:00,12:45:55,37993,38118,18260.0,34,18265.0,23,18265.0,18265.0,18260.0,18260.0,107,-89,18255,22,18260,22
2016-12-05 12:46:00,12:46:00,12:46:00,0,0,0.0,0,0.0,0,18260.0,18260.0,18260.0,18260.0,0,0,0,0,0,0
2016-12-05 12:47:00,12:47:00,12:47:00,0,0,0.0,0,0.0,0,18260.0,18260.0,18260.0,18260.0,0,0,0,0,0,0
2016-12-05 12:48:00,12:48:10,12:48:25,38175,38268,18255.0,32,18260.0,32,18255.0,18260.0,18255.0,18255.0,125,79,18250,43,18260,35
2016-12-05 12:49:00,12:49:00,12:49:00,0,0,0.0,0,0.0,0,18255.0,18255.0,18255.0,18255.0,0,0,0,0,0,0
2016-12-05 12:50:00,12:50:05,12:50:57,38310,38329,18255.0,23,18260.0,33,18255.0,18260.0,18255.0,18260.0,2,0,18255,26,18260,34
2016-12-05 12:51:00,12:51:33,12:51:49,38345,38376,18255.0,26,18260.0,29,18260.0,18260.0,18255.0,18255.0,27,-25,18250,32,18255,15
2016-12-05 12:52:00,12:52:20,12:52:28,38397,38432,18250.0,34,18255.0,21,18250.0,18250.0,18250.0,18250.0,25,-19,18245,28,18250,16
2016-12-05 12:53:00,12:53:13,12:53:57,38460,38612,18245.0,37,18250.0,19,18250.0,18255.0,18250.0,18250.0,162,5,18250,1,18255,33
2016-12-05 12:54:00,12:54:18,12:54:53,38637,38691,18250.0,22,18255.0,16,18255.0,18255.0,18255.0,18255.0,43,0,18255,7,18260,40
2016-12-05 12:55:00,12:55:31,12:55:50,38710,38733,18255.0,14,18260.0,41,18255.0,18255.0,18250.0,18250.0,13,-13,18250,31,18255,16
2016-12-05 12:56:00,12:56:59,12:56:59,38760,38763,18250.0,37,18255.0,5,18255.0,18255.0,18255.0,18255.0,5,5,18255,22,18260,38
2016-12-05 12:57:00,12:57:00,12:57:00,0,0,0.0,0,0.0,0,18255.0,18255.0,18255.0,18255.0,0,0,0,0,0,0
2016-12-05 12:58:00,12:58:51,12:58:51,38802,38802,18255.0,34,18260.0,37,18260.0,18260.0,18260.0,18260.0,1,1,18255,33,18260,19
2016-12-05 12:59:00,12:59:08,12:59:59,38805,38953,18255.0,34,18260.0,37,18260.0,18265.0,18260.0,18265.0,123,57,18260,43,18265,4
2016-12-05 13:00:00,13:00:00,13:00:57,38958,39036,18260.0,40,18265.0,14,18265.0,18270.0,18265.0,18270.0,30,18,18265,30,18270,19
2016-12-05 13:01:00,13:01:02,13:01:44,39041,39343,18265.0,29,18270.0,18,18270.0,18290.0,18270.0,18285.0,281,163,18280,52,18285,35
2016-12-05 13:02:00,13:02:03,13:02:58,39358,39478,18280.0,57,18285.0,35,18285.0,18285.0,18275.0,18275.0,132,-130,18270,43,18275,31
2016-12-05 13:03:00,13:03:11,13:03:45,39497,39562,18270.0,42,18275.0,56,18275.0,18275.0,18275.0,18275.0,64,46,18275,1,18280,52
2016-12-05 13:04:00,13:04:29,13:04:59,39594,39647,18275.0,31,18280.0,43,18280.0,18280.0,18270.0,18270.0,65,-61,18265,74,18270,49
2016-12-05 13:05:00,13:05:01,13:05:59,39654,39844,18265.0,75,18270.0,37,18270.0,18275.0,18270.0,18270.0,173,-64,18265,67,18270,21
2016-12-05 13:06:00,13:06:11,13:06:43,39854,39966,18265.0,81,18270.0,23,18265.0,18270.0,18265.0,18265.0,250,-216,18260,45,18270,36
2016-12-05 13:07:00,13:07:09,13:07:48,39984,40047,18265.0,21,18270.0,37,18265.0,18265.0,18265.0,18265.0,35,-27,18260,44,18265,10
2016-12-05 13:08:00,13:08:23,13:08:58,40065,40159,18260.0,46,18265.0,30,18265.0,18265.0,18260.0,18265.0,55,6,18260,48,18265,7
2016-12-05 13:09:00,13:09:03,13:09:59,40169,40586,18260.0,35,18265.0,24,18260.0,18285.0,18260.0,18275.0,615,225,18275,5,18280,30
2016-12-05 13:10:00,13:10:37,13:10:37,40629,40634,18275.0,15,18280.0,27,18275.0,18275.0,18275.0,18275.0,7,-7,18275,14,18280,29
2016-12-05 13:11:00,13:11:39,13:11:39,40697,40698,18275.0,20,18280.0,29,18280.0,18280.0,18280.0,18280.0,3,3,18275,22,18280,22
2016-12-05 13:12:00,13:12:04,13:12:44,40713,40834,18275.0,28,18280.0,20,18280.0,18280.0,18275.0,18280.0,113,16,18275,21,18280,22
2016-12-05 13:13:00,13:13:04,13:13:36,40846,40903,18275.0,17,18280.0,24,18275.0,18275.0,18270.0,18275.0,42,-30,18275,5,18280,37
2016-12-05 13:14:00,13:14:02,13:14:55,40925,40985,18275.0,6,18280.0,38,18275.0,18280.0,18275.0,18275.0,58,-12,18270,25,18275,5
2016-12-05 13:15:00,13:15:00,13:15:43,40989,41113,18270.0,25,18275.0,6,18275.0,18275.0,18275.0,18275.0,86,39,18270,23,18275,3
2016-12-05 13:16:00,13:16:15,13:16:55,41137,41224,18270.0,24,18275.0,35,18275.0,18275.0,18260.0,18260.0,107,-16,18260,12,18265,45
2016-12-05 13:17:00,13:17:09,13:17:57,41239,41323,18260.0,42,18265.0,28,18265.0,18265.0,18260.0,18265.0,72,38,18265,27,18270,38
2016-12-05 13:18:00,13:18:00,13:18:24,41331,41384,18265.0,27,18270.0,38,18265.0,18265.0,18265.0,18265.0,45,-11,18260,42,18265,3
2016-12-05 13:19:00,13:19:11,13:19:52,41410,41475,18260.0,53,18265.0,16,18260.0,18265.0,18260.0,18265.0,45,43,18265,10,18270,40
2016-12-05 13:20:00,13:20:00,13:20:59,41483,41542,18260.0,55,18265.0,5,18265.0,18265.0,18265.0,18265.0,33,-19,18265,2,18270,40
2016-12-05 13:21:00,13:21:00,13:21:37,41543,41599,18265.0,12,18270.0,39,18265.0,18265.0,18260.0,18260.0,42,-10,18260,41,18265,8
2016-12-05 13:22:00,13:22:05,13:22:59,41613,41690,18260.0,44,18265.0,9,18265.0,18265.0,18260.0,18260.0,46,-12,18260,30,18265,23
2016-12-05 13:23:00,13:23:08,13:23:37,41700,41806,18260.0,36,18265.0,17,18265.0,18265.0,18255.0,18255.0,106,-80,18255,12,18260,108
2016-12-05 13:24:00,13:24:03,13:24:56,41833,41957,18255.0,19,18260.0,105,18255.0,18255.0,18250.0,18255.0,125,-23,18255,5,18260,65
2016-12-05 13:25:00,13:25:18,13:25:51,41984,42064,18255.0,20,18260.0,102,18255.0,18255.0,18255.0,18255.0,58,-2,18250,41,18260,66
2016-12-05 13:26:00,13:26:03,13:26:53,42082,42229,18250.0,41,18255.0,21,18250.0,18255.0,18250.0,18255.0,120,23,18250,43,18260,94
2016-12-05 13:27:00,13:27:00,13:27:53,42237,42335,18250.0,42,18255.0,5,18255.0,18255.0,18250.0,18250.0,74,27,18250,35,18255,6
2016-12-05 13:28:00,13:28:00,13:28:59,42349,42579,18250.0,50,18255.0,5,18255.0,18270.0,18255.0,18270.0,265,117,18265,39,18275,36
2016-12-05 13:29:00,13:29:21,13:29:56,42606,42660,18270.0,22,18275.0,25,18275.0,18275.0,18270.0,18270.0,18,-10,18270,19,18275,42
2016-12-05 13:30:00,13:30:01,13:30:52,42664,42878,18270.0,19,18275.0,41,18270.0,18270.0,18265.0,18265.0,259,51,18265,9,18270,30
2016-12-05 13:31:00,13:31:00,13:31:52,42890,43048,18265.0,24,18270.0,36,18265.0,18265.0,18260.0,18260.0,126,-89,18255,33,18265,75
2016-12-05 13:32:00,13:32:00,13:32:53,43056,43180,18260.0,21,18265.0,65,18260.0,18265.0,18260.0,18265.0,118,72,18260,25,18265,1
2016-12-05 13:33:00,13:33:00,13:33:56,43190,43315,18260.0,27,18265.0,74,18260.0,18260.0,18255.0,18260.0,71,-19,18255,46,18265,83
2016-12-05 13:34:00,13:34:00,13:34:57,43321,43385,18255.0,47,18260.0,1,18260.0,18260.0,18255.0,18255.0,36,-34,18255,4,18260,78
2016-12-05 13:35:00,13:35:02,13:35:54,43390,43462,18255.0,6,18260.0,78,18255.0,18255.0,18255.0,18255.0,54,-44,18255,3,18260,88
2016-12-05 13:36:00,13:36:08,13:36:59,43479,43607,18255.0,15,18260.0,82,18255.0,18255.0,18245.0,18245.0,156,-111,18245,20,18250,162
2016-12-05 13:37:00,13:37:00,13:37:50,43612,43776,18245.0,37,18250.0,160,18245.0,18255.0,18245.0,18255.0,297,237,18255,5,18260,87
2016-12-05 13:38:00,13:38:03,13:38:45,43782,43851,18255.0,5,18260.0,88,18255.0,18255.0,18250.0,18250.0,66,-6,18245,38,18250,15
2016-12-05 13:39:00,13:39:00,13:39:53,43872,44043,18245.0,40,18250.0,17,18250.0,18255.0,18245.0,18250.0,117,-22,18245,44,18255,29
2016-12-05 13:40:00,13:40:01,13:40:57,44057,44252,18250.0,32,18255.0,25,18255.0,18265.0,18250.0,18260.0,281,155,18255,49,18260,7
2016-12-05 13:41:00,13:41:00,13:41:53,44258,44422,18255.0,37,18260.0,22,18260.0,18270.0,18255.0,18270.0,165,-5,18265,8,18270,57
2016-12-05 13:42:00,13:42:01,13:42:32,44432,44480,18265.0,5,18270.0,57,18265.0,18265.0,18260.0,18260.0,62,-52,18260,36,18265,37
2016-12-05 13:43:00,13:43:00,13:43:42,44495,44608,18260.0,60,18265.0,36,18260.0,18265.0,18255.0,18260.0,134,46,18260,50,18265,15
2016-12-05 13:44:00,13:44:14,13:44:58,44626,44799,18260.0,50,18265.0,15,18260.0,18270.0,18260.0,18270.0,185,63,18270,15,18275,82
2016-12-05 13:45:00,13:45:00,13:45:50,44805,44908,18270.0,20,18275.0,90,18270.0,18270.0,18265.0,18270.0,74,1,18270,2,18275,84
2016-12-05 13:46:00,13:46:17,13:46:54,44931,45019,18270.0,64,18275.0,91,18275.0,18275.0,18270.0,18270.0,168,70,18265,46,18270,8
2016-12-05 13:47:00,13:47:00,13:47:21,45023,45078,18265.0,43,18270.0,17,18270.0,18270.0,18265.0,18265.0,59,-15,18260,67,18270,70
2016-12-05 13:48:00,13:48:11,13:48:54,45135,45167,18265.0,39,18270.0,60,18265.0,18270.0,18265.0,18270.0,2,0,18265,61,18270,61
2016-12-05 13:49:00,13:49:30,13:49:59,45190,45264,18265.0,58,18270.0,61,18270.0,18270.0,18265.0,18265.0,64,-16,18265,9,18270,67
2016-12-05 13:50:00,13:50:00,13:50:53,45265,45448,18260.0,64,18265.0,25,18265.0,18265.0,18255.0,18260.0,163,-81,18255,43,18265,52
2016-12-05 13:51:00,13:51:00,13:51:42,45460,45608,18255.0,37,18260.0,10,18260.0,18260.0,18260.0,18260.0,144,52,18260,24,18265,35
2016-12-05 13:52:00,13:52:11,13:52:35,45630,45717,18260.0,65,18265.0,35,18265.0,18270.0,18265.0,18270.0,133,79,18265,37,18270,30
2016-12-05 13:53:00,13:53:01,13:53:56,45746,45841,18265.0,46,18270.0,52,18265.0,18270.0,18265.0,18265.0,61,-35,18265,21,18265,7
2016-12-05 13:54:00,13:54:00,13:54:55,45845,45992,18260.0,82,18265.0,12,18265.0,18270.0,18265.0,18265.0,101,-11,18265,10,18270,66
2016-12-05 13:55:00,13:55:00,13:55:59,45996,46073,18265.0,12,18270.0,66,18265.0,18270.0,18265.0,18270.0,35,-33,18270,35,18270,55
2016-12-05 13:56:00,13:56:00,13:56:55,46075,46237,18265.0,36,18270.0,55,18270.0,18275.0,18265.0,18265.0,207,-131,18260,66,18265,23
2016-12-05 13:57:00,13:57:01,13:57:53,46245,46317,18260.0,54,18265.0,27,18260.0,18265.0,18260.0,18265.0,53,-49,18260,45,18265,35
2016-12-05 13:58:00,13:58:04,13:58:59,46325,46526,18260.0,45,18265.0,36,18260.0,18270.0,18260.0,18265.0,161,19,18265,32,18270,70
2016-12-05 13:59:00,13:59:00,13:59:59,46531,46881,18265.0,28,18270.0,73,18265.0,18270.0,18260.0,18265.0,617,-97,18265,12,18270,95
2016-12-05 14:00:00,14:00:00,14:00:55,46884,47231,18265.0,12,18270.0,95,18270.0,18270.0,18260.0,18270.0,718,46,18265,96,18270,89
2016-12-05 14:01:00,14:01:00,14:01:55,47237,47404,18265.0,200,18270.0,87,18270.0,18275.0,18270.0,18270.0,310,188,18270,42,18275,132
2016-12-05 14:02:00,14:02:00,14:02:58,47416,47521,18270.0,94,18275.0,178,18275.0,18275.0,18270.0,18275.0,149,135,18270,162,18275,77
2016-12-05 14:03:00,14:03:00,14:03:58,47526,47713,18270.0,157,18275.0,77,18275.0,18275.0,18265.0,18265.0,300,-122,18260,92,18265,73
2016-12-05 14:04:00,14:04:02,14:04:58,47723,47948,18260.0,105,18265.0,81,18265.0,18265.0,18250.0,18255.0,359,-248,18250,79,18255,48
2016-12-05 14:05:00,14:05:02,14:05:59,47957,48075,18250.0,79,18255.0,53,18255.0,18260.0,18250.0,18255.0,142,4,18250,107,18255,59
2016-12-05 14:06:00,14:06:00,14:06:58,48079,48226,18250.0,107,18255.0,60,18255.0,18260.0,18255.0,18255.0,156,-2,18250,117,18260,73
2016-12-05 14:07:00,14:07:00,14:07:52,48232,48311,18250.0,114,18260.0,74,18250.0,18255.0,18250.0,18255.0,79,-37,18250,81,18255,34
2016-12-05 14:08:00,14:08:00,14:08:59,48323,48582,18250.0,68,18255.0,31,18255.0,18270.0,18255.0,18265.0,515,309,18260,59,18265,17
