,ST,ET,sidx,eidx,bB,bBS,bA,bAS,O,H,L,C,V,OF,eB,eBS,eA,eAS
2016-08-30 08:00:00,08:00:00,08:00:48,2141,2361,16700.0,27,16705.0,18,16705.0,16705.0,16695.0,16705.0,257,-9,16700,34,16705,27
2016-08-30 08:01:00,08:01:06,08:01:51,2380,2462,16700.0,34,16705.0,31,16700.0,16705.0,16700.0,16705.0,36,22,16700,24,16705,31
2016-08-30 08:02:00,08:02:00,08:02:59,2473,2661,16700.0,25,16705.0,31,16700.0,16700.0,16690.0,16695.0,160,-44,16690,52,16695,14
2016-08-30 08:03:00,08:03:00,08:03:52,2662,2918,16695.0,18,16700.0,53,16695.0,16695.0,16685.0,16690.0,294,-75,16690,16,16695,46
2016-08-30 08:04:00,08:04:00,08:04:55,2929,2975,16690.0,33,16695.0,45,16690.0,16695.0,16690.0,16690.0,19,-3,16690,30,16695,32
2016-08-30 08:05:00,08:05:00,08:05:54,2984,3153,16690.0,31,16695.0,29,16690.0,16690.0,16680.0,16685.0,170,14,16680,78,16685,90
2016-08-30 08:06:00,08:06:00,08:06:59,3160,3317,16680.0,76,16685.0,87,16680.0,16690.0,16680.0,16680.0,172,30,16680,74,16685,29
2016-08-30 08:07:00,08:07:00,08:07:59,3320,3471,16680.0,74,16685.0,29,16680.0,16685.0,16680.0,16685.0,170,48,16680,61,16685,8
2016-08-30 08:08:00,08:08:07,08:08:41,3480,3684,16680.0,57,16685.0,31,16685.0,16700.0,16685.0,16695.0,283,119,16690,31,16695,8
2016-08-30 08:09:00,08:09:01,08:09:54,3701,3885,16690.0,34,16695.0,21,16695.0,16700.0,16695.0,16700.0,202,105,16695,57,16700,26
2016-08-30 08:10:00,08:10:00,08:10:58,3895,4109,16695.0,24,16700.0,31,16695.0,16695.0,16685.0,16685.0,236,-102,16680,51,16685,8
2016-08-30 08:11:00,08:11:00,08:11:47,4111,4229,16680.0,54,16685.0,8,16680.0,16690.0,16680.0,16685.0,120,66,16680,51,16690,40
2016-08-30 08:12:00,08:12:00,08:12:14,4247,4286,16685.0,34,16690.0,21,16685.0,16690.0,16685.0,16690.0,42,34,16685,41,16690,17
2016-08-30 08:13:00,08:13:00,08:13:34,4328,4395,16685.0,17,16690.0,36,16685.0,16695.0,16685.0,16695.0,37,33,16690,33,16695,18
2016-08-30 08:14:00,08:14:03,08:14:35,4416,4498,16690.0,28,16695.0,23,16695.0,16700.0,16695.0,16695.0,54,22,16695,4,16700,41
2016-08-30 08:15:00,08:15:00,08:15:26,4524,4547,16695.0,16,16700.0,35,16695.0,16700.0,16695.0,16695.0,16,0,16695,49,16700,23
2016-08-30 08:16:00,08:16:22,08:16:48,4588,4622,16695.0,47,16700.0,34,16700.0,16700.0,16695.0,16700.0,6,4,16695,46,16700,38
2016-08-30 08:17:00,08:17:00,08:17:51,4632,4743,16695.0,50,16700.0,22,16695.0,16695.0,16690.0,16690.0,141,-137,16690,38,16695,39
2016-08-30 08:18:00,08:18:00,08:18:59,4755,4824,16690.0,36,16695.0,39,16690.0,16695.0,16690.0,16695.0,52,32,16695,37,16700,41
2016-08-30 08:19:00,08:19:04,08:19:44,4834,4863,16695.0,56,16700.0,38,16695.0,16700.0,16695.0,16700.0,14,12,16695,67,16700,42
2016-08-30 08:20:00,08:20:00,08:20:59,4875,5198,16695.0,70,16700.0,37,16695.0,16715.0,16695.0,16710.0,387,237,16705,62,16710,5
2016-08-30 08:21:00,08:21:00,08:21:56,5201,5289,16705.0,62,16710.0,5,16705.0,16715.0,16705.0,16715.0,43,39,16710,37,16715,33
2016-08-30 08:22:00,08:22:10,08:22:57,5305,5376,16710.0,36,16715.0,31,16715.0,16715.0,16715.0,16715.0,60,8,16710,48,16715,11
2016-08-30 08:23:00,08:23:03,08:23:43,5391,5518,16710.0,36,16715.0,29,16715.0,16715.0,16710.0,16715.0,152,99,16715,13,16720,31
2016-08-30 08:24:00,08:24:02,08:24:53,5549,5629,16715.0,15,16720.0,35,16715.0,16720.0,16715.0,16720.0,51,1,16715,45,16720,27
2016-08-30 08:25:00,08:25:22,08:25:57,5644,5778,16715.0,48,16720.0,37,16720.0,16725.0,16715.0,16715.0,153,-11,16710,41,16715,10
2016-08-30 08:26:00,08:26:04,08:26:57,5793,5936,16710.0,43,16715.0,20,16710.0,16720.0,16710.0,16715.0,105,-5,16715,4,16720,51
2016-08-30 08:27:00,08:27:37,08:27:52,5966,6038,16715.0,4,16720.0,55,16715.0,16720.0,16710.0,16720.0,52,8,16715,25,16720,30
2016-08-30 08:28:00,08:28:00,08:28:59,6048,6142,16715.0,26,16720.0,31,16720.0,16720.0,16715.0,16715.0,99,-7,16715,37,16720,30
2016-08-30 08:29:00,08:29:10,08:29:58,6153,6258,16715.0,40,16720.0,24,16720.0,16720.0,16720.0,16720.0,62,16,16720,3,16725,52
2016-08-30 08:30:00,08:30:00,08:30:34,6261,6310,16720.0,3,16725.0,52,16720.0,16720.0,16715.0,16720.0,24,-8,16715,25,16720,38
2016-08-30 08:31:00,08:31:54,08:31:54,6358,6358,16715.0,49,16720.0,36,16715.0,16715.0,16715.0,16715.0,1,-1,16715,43,16720,41
2016-08-30 08:32:00,08:32:00,08:32:00,0,0,0.0,0,0.0,0,16715.0,16715.0,16715.0,16715.0,0,0,0,0,0,0
2016-08-30 08:33:00,08:33:00,08:33:00,0,0,0.0,0,0.0,0,16715.0,16715.0,16715.0,16715.0,0,0,0,0,0,0
2016-08-30 08:34:00,08:34:57,08:34:57,6445,6445,16715.0,83,16720.0,46,16720.0,16720.0,16720.0,16720.0,1,1,16715,82,16720,45
2016-08-30 08:35:00,08:35:01,08:35:45,6449,6581,16715.0,82,16720.0,43,16720.0,16725.0,16720.0,16720.0,111,31,16715,140,16720,11
2016-08-30 08:36:00,08:36:21,08:36:29,6607,6668,16715.0,133,16720.0,53,16715.0,16715.0,16715.0,16715.0,145,-120,16715,6,16720,60
2016-08-30 08:37:00,08:37:26,08:37:37,6741,6828,16715.0,12,16720.0,42,16715.0,16720.0,16715.0,16715.0,120,-48,16715,7,16720,49
2016-08-30 08:38:00,08:38:00,08:38:03,6854,6863,16715.0,33,16720.0,39,16715.0,16715.0,16715.0,16715.0,16,-16,16715,14,16720,48
2016-08-30 08:39:00,08:39:18,08:39:38,6904,7027,16715.0,29,16720.0,39,16720.0,16720.0,16710.0,16715.0,168,-6,16710,46,16715,21
2016-08-30 08:40:00,08:40:02,08:40:57,7046,7161,16710.0,38,16715.0,28,16715.0,16715.0,16715.0,16715.0,114,48,16715,12,16720,60
2016-08-30 08:41:00,08:41:22,08:41:47,7181,7257,16715.0,30,16720.0,38,16720.0,16725.0,16720.0,16720.0,84,46,16720,8,16725,48
2016-08-30 08:42:00,08:42:02,08:42:29,7277,7343,16720.0,27,16725.0,41,16720.0,16720.0,16720.0,16720.0,69,-21,16715,49,16720,1
2016-08-30 08:43:00,08:43:00,08:43:00,0,0,0.0,0,0.0,0,16720.0,16720.0,16720.0,16720.0,0,0,0,0,0,0
2016-08-30 08:44:00,08:44:15,08:44:52,7399,7443,16715.0,29,16720.0,50,16715.0,16715.0,16710.0,16710.0,42,-42,16710,42,16715,34
2016-08-30 08:45:00,08:45:50,08:45:50,7469,7469,16710.0,60,16715.0,32,16710.0,16710.0,16710.0,16710.0,1,-1,16710,59,16715,31
2016-08-30 08:46:00,08:46:05,08:46:57,7474,7525,16710.0,63,16715.0,33,16715.0,16715.0,16715.0,16715.0,64,0,16715,3,16720,51
2016-08-30 08:47:00,08:47:10,08:47:34,7535,7578,16715.0,6,16720.0,51,16715.0,16715.0,16715.0,16715.0,48,-4,16710,59,16715,18
2016-08-30 08:48:00,08:48:22,08:48:59,7612,7639,16710.0,56,16715.0,20,16715.0,16715.0,16715.0,16715.0,21,21,16715,1,16720,52
2016-08-30 08:49:00,08:49:00,08:49:53,7642,7688,16715.0,1,16720.0,52,16715.0,16715.0,16715.0,16715.0,28,-20,16710,55,16720,58
2016-08-30 08:50:00,08:50:00,08:50:00,0,0,0.0,0,0.0,0,16715.0,16715.0,16715.0,16715.0,0,0,0,0,0,0
2016-08-30 08:51:00,08:51:23,08:51:38,7720,7749,16710.0,45,16715.0,24,16715.0,16715.0,16715.0,16715.0,25,15,16710,50,16720,52
2016-08-30 08:52:00,08:52:44,08:52:47,7779,7800,16710.0,47,16715.0,32,16715.0,16715.0,16715.0,16715.0,31,27,16710,53,16720,49
2016-08-30 08:53:00,08:53:07,08:53:07,7827,7828,16715.0,2,16720.0,50,16715.0,16715.0,16715.0,16715.0,2,-2,16715,1,16720,53
2016-08-30 08:54:00,08:54:51,08:54:53,7900,7915,16715.0,13,16720.0,47,16715.0,16715.0,16715.0,16715.0,13,-5,16710,44,16715,5
2016-08-30 08:55:00,08:55:08,08:55:55,7952,8032,16710.0,44,16715.0,15,16715.0,16715.0,16715.0,16715.0,32,30,16715,13,16720,50
2016-08-30 08:56:00,08:56:00,08:56:00,0,0,0.0,0,0.0,0,16715.0,16715.0,16715.0,16715.0,0,0,0,0,0,0
2016-08-30 08:57:00,08:57:08,08:57:53,8096,8127,16715.0,54,16720.0,40,16720.0,16720.0,16720.0,16720.0,16,16,16715,70,16720,39
2016-08-30 08:58:00,08:58:02,08:58:49,8130,8189,16715.0,70,16720.0,39,16715.0,16715.0,16715.0,16715.0,57,-41,16715,50,16720,25
2016-08-30 08:59:00,08:59:12,08:59:56,8203,8266,16715.0,39,16720.0,38,16715.0,16720.0,16715.0,16715.0,65,-21,16710,48,16715,3
2016-08-30 09:00:00,09:00:01,09:00:47,8272,8342,16710.0,45,16715.0,2,16715.0,16715.0,16715.0,16715.0,49,-23,16710,46,16715,2
2016-08-30 09:01:00,09:01:07,09:01:36,8357,8407,16710.0,35,16715.0,18,16715.0,16720.0,16710.0,16715.0,50,-16,16710,44,16715,17
2016-08-30 09:02:00,09:02:17,09:02:57,8424,8488,16710.0,44,16715.0,26,16715.0,16715.0,16705.0,16710.0,92,-26,16705,62,16710,6
2016-08-30 09:03:00,09:03:05,09:03:16,8506,8542,16705.0,58,16710.0,13,16710.0,16710.0,16710.0,16710.0,22,20,16710,24,16715,53
2016-08-30 09:04:00,09:04:06,09:04:47,8561,8592,16710.0,34,16715.0,48,16710.0,16715.0,16710.0,16715.0,27,25,16710,34,16715,35
2016-08-30 09:05:00,09:05:16,09:05:44,8615,8644,16710.0,34,16715.0,39,16710.0,16710.0,16710.0,16710.0,2,-2,16710,28,16715,41
2016-08-30 09:06:00,09:06:33,09:06:43,8681,8779,16710.0,35,16715.0,36,16715.0,16715.0,16715.0,16715.0,190,60,16715,35,16720,52
2016-08-30 09:07:00,09:07:39,09:07:39,8819,8819,16715.0,43,16720.0,48,16715.0,16715.0,16715.0,16715.0,1,-1,16715,42,16720,47
2016-08-30 09:08:00,09:08:00,09:08:00,0,0,0.0,0,0.0,0,16715.0,16715.0,16715.0,16715.0,0,0,0,0,0,0
2016-08-30 09:09:00,09:09:00,09:09:00,0,0,0.0,0,0.0,0,16715.0,16715.0,16715.0,16715.0,0,0,0,0,0,0
2016-08-30 09:10:00,09:10:04,09:10:44,8884,8932,16715.0,50,16720.0,40,16715.0,16715.0,16715.0,16715.0,68,-68,16715,20,16720,50
2016-08-30 09:11:00,09:11:09,09:11:30,8942,8952,16715.0,28,16720.0,44,16720.0,16720.0,16720.0,16720.0,2,2,16715,28,16720,49
2016-08-30 09:12:00,09:12:01,09:12:36,8972,9077,16715.0,56,16720.0,40,16720.0,16725.0,16720.0,16725.0,112,112,16720,48,16725,20
2016-08-30 09:13:00,09:13:01,09:13:01,9096,9120,16720.0,37,16725.0,44,16720.0,16720.0,16720.0,16720.0,51,1,16720,7,16725,57
2016-08-30 09:14:00,09:14:07,09:14:56,9167,9194,16720.0,38,16725.0,39,16725.0,16725.0,16720.0,16720.0,12,-8,16720,26,16725,37
2016-08-30 09:15:00,09:15:27,09:15:41,9219,9317,16720.0,37,16725.0,34,16720.0,16730.0,16720.0,16725.0,161,-15,16725,7,16730,41
2016-08-30 09:16:00,09:16:03,09:16:52,9341,9454,16725.0,40,16730.0,33,16730.0,16730.0,16725.0,16730.0,105,47,16725,61,16735,36
2016-08-30 09:17:00,09:17:28,09:17:29,9503,9531,16730.0,27,16735.0,32,16735.0,16740.0,16735.0,16735.0,59,59,16735,26,16740,58
2016-08-30 09:18:00,09:18:05,09:18:54,9549,9588,16735.0,30,16740.0,55,16735.0,16740.0,16735.0,16740.0,3,1,16735,67,16740,53
2016-08-30 09:19:00,09:19:05,09:19:59,9596,9679,16735.0,66,16740.0,54,16740.0,16740.0,16735.0,16740.0,76,72,16735,82,16740,10
2016-08-30 09:20:00,09:20:10,09:20:47,9699,9807,16735.0,66,16740.0,47,16740.0,16745.0,16740.0,16745.0,80,80,16740,62,16745,19
2016-08-30 09:21:00,09:21:00,09:21:55,9827,10033,16740.0,63,16745.0,28,16745.0,16745.0,16740.0,16740.0,204,75,16735,81,16740,8
2016-08-30 09:22:00,09:22:01,09:22:56,10044,10213,16735.0,84,16740.0,8,16740.0,16745.0,16740.0,16745.0,272,74,16740,41,16750,51
2016-08-30 09:23:00,09:23:03,09:23:56,10219,10284,16745.0,9,16750.0,51,16745.0,16745.0,16745.0,16745.0,40,10,16745,25,16750,39
2016-08-30 09:24:00,09:24:01,09:24:28,10299,10338,16745.0,20,16750.0,38,16745.0,16745.0,16740.0,16740.0,21,-21,16740,45,16745,14
2016-08-30 09:25:00,09:25:38,09:25:38,10387,10387,16740.0,32,16745.0,39,16740.0,16740.0,16740.0,16740.0,1,-1,16740,31,16745,38
2016-08-30 09:26:00,09:26:23,09:26:42,10420,10451,16740.0,30,16745.0,37,16745.0,16745.0,16745.0,16745.0,8,8,16740,37,16745,33
2016-08-30 09:27:00,09:27:02,09:27:59,10477,10561,16740.0,41,16745.0,28,16740.0,16740.0,16740.0,16740.0,43,-43,16740,9,16745,39
2016-08-30 09:28:00,09:28:14,09:28:33,10576,10593,16740.0,32,16745.0,31,16740.0,16740.0,16740.0,16740.0,4,-4,16740,27,16745,35
2016-08-30 09:29:00,09:29:14,09:29:50,10632,10725,16740.0,51,16745.0,27,16745.0,16750.0,16745.0,16745.0,75,-5,16745,3,16750,45
2016-08-30 09:30:00,09:30:02,09:30:51,10747,10921,16745.0,3,16750.0,47,16745.0,16755.0,16745.0,16750.0,129,61,16745,42,16750,7
2016-08-30 09:31:00,09:31:09,09:31:39,10942,11070,16745.0,42,16750.0,13,16745.0,16750.0,16745.0,16745.0,128,-33,16745,31,16750,37
2016-08-30 09:32:00,09:32:09,09:32:57,11095,11197,16745.0,50,16750.0,42,16745.0,16745.0,16745.0,16745.0,89,-89,16740,45,16745,5
2016-08-30 09:33:00,09:33:01,09:33:37,11205,11281,16740.0,45,16745.0,10,16745.0,16745.0,16740.0,16740.0,43,-9,16740,47,16745,7
2016-08-30 09:34:00,09:34:10,09:34:40,11301,11346,16740.0,42,16745.0,17,16740.0,16745.0,16740.0,16745.0,48,42,16745,21,16750,35
2016-08-30 09:35:00,09:35:10,09:35:40,11376,11410,16745.0,44,16750.0,37,16745.0,16750.0,16745.0,16745.0,5,1,16745,46,16750,38
2016-08-30 09:36:00,09:36:00,09:36:44,11429,11578,16745.0,39,16750.0,42,16750.0,16750.0,16745.0,16750.0,123,-11,16745,58,16750,2
2016-08-30 09:37:00,09:37:00,09:37:54,11598,11691,16745.0,55,16750.0,10,16750.0,16755.0,16745.0,16750.0,25,7,16745,68,16750,7
2016-08-30 09:38:00,09:38:09,09:38:54,11710,11776,16745.0,67,16750.0,32,16745.0,16745.0,16745.0,16745.0,57,-57,16740,59,16745,6
2016-08-30 09:39:00,09:39:10,09:39:46,11803,11872,16740.0,43,16745.0,24,16740.0,16740.0,16735.0,16735.0,53,-53,16735,65,16740,38
2016-08-30 09:40:00,09:40:10,09:40:52,11899,11931,16735.0,75,16740.0,32,16735.0,16735.0,16735.0,16735.0,65,-65,16730,39,16735,30
2016-08-30 09:41:00,09:41:10,09:41:55,11960,12048,16730.0,33,16735.0,50,16730.0,16740.0,16730.0,16740.0,70,44,16735,38,16740,26
2016-08-30 09:42:00,09:42:10,09:42:41,12065,12118,16735.0,38,16740.0,32,16740.0,16740.0,16735.0,16735.0,34,24,16735,26,16740,31
2016-08-30 09:43:00,09:43:05,09:43:41,12136,12173,16735.0,25,16740.0,32,16735.0,16735.0,16735.0,16735.0,6,-6,16735,36,16740,21
2016-08-30 09:44:00,09:44:04,09:44:35,12196,12252,16735.0,38,16740.0,24,16740.0,16740.0,16735.0,16735.0,45,15,16735,41,16740,5
2016-08-30 09:45:00,09:45:00,09:45:34,12275,12318,16735.0,32,16740.0,19,16740.0,16740.0,16735.0,16735.0,32,-26,16735,9,16740,51
2016-08-30 09:46:00,09:46:05,09:46:58,12333,12385,16735.0,30,16740.0,46,16735.0,16740.0,16735.0,16740.0,63,17,16735,36,16740,32
2016-08-30 09:47:00,09:47:36,09:47:56,12409,12437,16735.0,42,16740.0,41,16735.0,16740.0,16735.0,16740.0,30,24,16740,28,16745,43
2016-08-30 09:48:00,09:48:06,09:48:43,12447,12549,16740.0,29,16745.0,44,16740.0,16740.0,16730.0,16735.0,92,-24,16730,64,16735,9
2016-08-30 09:49:00,09:49:14,09:49:59,12589,12732,16730.0,44,16735.0,32,16730.0,16735.0,16730.0,16730.0,154,18,16730,27,16735,31
2016-08-30 09:50:00,09:50:25,09:50:59,12760,12828,16730.0,35,16735.0,26,16735.0,16735.0,16730.0,16730.0,42,-12,16725,68,16735,37
2016-08-30 09:51:00,09:51:00,09:51:53,12831,13003,16725.0,68,16735.0,37,16730.0,16740.0,16730.0,16740.0,129,-8,16740,7,16745,43
2016-08-30 09:52:00,09:52:31,09:52:52,13034,13085,16740.0,22,16745.0,34,16740.0,16745.0,16740.0,16745.0,51,-39,16740,12,16745,37
2016-08-30 09:53:00,09:53:34,09:53:53,13123,13157,16740.0,17,16745.0,44,16745.0,16745.0,16740.0,16740.0,37,35,16740,36,16745,52
2016-08-30 09:54:00,09:54:20,09:54:46,13189,13222,16740.0,37,16745.0,51,16745.0,16745.0,16745.0,16745.0,48,48,16745,27,16750,33
2016-08-30 09:55:00,09:55:06,09:55:49,13252,13406,16745.0,42,16750.0,39,16750.0,16750.0,16745.0,16750.0,86,68,16745,58,16750,11
2016-08-30 09:56:00,09:56:09,09:56:49,13441,13595,16745.0,54,16750.0,34,16745.0,16745.0,16740.0,16740.0,189,-72,16740,9,16745,44
2016-08-30 09:57:00,09:57:00,09:57:00,0,0,0.0,0,0.0,0,16740.0,16740.0,16740.0,16740.0,0,0,0,0,0,0
2016-08-30 09:58:00,09:58:23,09:58:46,13672,13698,16740.0,34,16745.0,45,16740.0,16745.0,16740.0,16740.0,6,2,16740,23,16745,50
2016-08-30 09:59:00,09:59:39,09:59:57,13743,13793,16740.0,41,16745.0,42,16745.0,16745.0,16745.0,16745.0,49,19,16740,40,16745,17
2016-08-30 10:00:00,10:00:00,10:00:50,13796,13940,16740.0,39,16745.0,21,16745.0,16750.0,16745.0,16745.0,87,-19,16745,2,16750,61
2016-08-30 10:01:00,10:01:10,10:01:44,13968,14029,16745.0,3,16750.0,58,16745.0,16745.0,16740.0,16745.0,17,-15,16740,40,16750,53
2016-08-30 10:02:00,10:02:03,10:02:51,14044,14082,16740.0,40,16745.0,7,16740.0,16745.0,16740.0,16745.0,7,-3,16740,38,16745,31
2016-08-30 10:03:00,10:03:10,10:03:42,14100,14153,16740.0,32,16745.0,38,16740.0,16740.0,16735.0,16735.0,50,-50,16735,92,16740,36
2016-08-30 10:04:00,10:04:11,10:04:42,14174,14197,16735.0,95,16740.0,34,16735.0,16735.0,16735.0,16735.0,8,-8,16735,86,16740,42
2016-08-30 10:05:00,10:05:04,10:05:42,14210,14310,16735.0,92,16740.0,43,16740.0,16745.0,16740.0,16740.0,76,34,16740,21,16745,44
2016-08-30 10:06:00,10:06:12,10:06:29,14313,14356,16740.0,20,16745.0,47,16740.0,16740.0,16740.0,16740.0,47,-47,16740,2,16745,44
2016-08-30 10:07:00,10:07:12,10:07:42,14391,14428,16740.0,34,16745.0,63,16740.0,16740.0,16740.0,16740.0,7,-7,16740,30,16745,65
2016-08-30 10:08:00,10:08:27,10:08:31,14446,14449,16740.0,33,16745.0,66,16745.0,16745.0,16740.0,16740.0,3,1,16740,30,16745,65
2016-08-30 10:09:00,10:09:26,10:09:28,14470,14472,16740.0,34,16745.0,64,16745.0,16745.0,16745.0,16745.0,2,2,16740,32,16745,63
2016-08-30 10:10:00,10:10:11,10:10:57,14491,14512,16740.0,42,16745.0,68,16745.0,16745.0,16740.0,16740.0,4,-2,16740,40,16745,92
2016-08-30 10:11:00,10:11:06,10:11:52,14517,14544,16740.0,42,16745.0,93,16745.0,16745.0,16740.0,16745.0,16,12,16740,52,16745,54
2016-08-30 10:12:00,10:12:08,10:12:55,14557,14596,16740.0,69,16745.0,70,16745.0,16745.0,16740.0,16745.0,9,7,16740,69,16745,55
2016-08-30 10:13:00,10:13:01,10:13:57,14608,14659,16740.0,65,16745.0,63,16745.0,16745.0,16740.0,16745.0,19,-9,16740,49,16745,67
2016-08-30 10:14:00,10:14:02,10:14:47,14662,14692,16740.0,49,16745.0,67,16745.0,16745.0,16745.0,16745.0,13,13,16740,58,16745,56
2016-08-30 10:15:00,10:15:07,10:15:50,14708,14735,16740.0,53,16745.0,63,16745.0,16745.0,16740.0,16740.0,8,6,16740,50,16745,59
2016-08-30 10:16:00,10:16:01,10:16:29,14744,14808,16740.0,47,16745.0,63,16745.0,16745.0,16740.0,16740.0,69,-49,16735,93,16740,8
2016-08-30 10:17:00,10:17:04,10:17:55,14838,14867,16735.0,94,16740.0,36,16735.0,16740.0,16735.0,16740.0,7,-5,16735,87,16740,45
2016-08-30 10:18:00,10:18:00,10:18:34,14870,14888,16735.0,87,16740.0,45,16740.0,16740.0,16735.0,16735.0,8,4,16735,88,16740,40
2016-08-30 10:19:00,10:19:49,10:19:50,14916,14953,16735.0,89,16740.0,37,16740.0,16740.0,16740.0,16740.0,49,21,16740,3,16745,59
2016-08-30 10:20:00,10:20:07,10:20:47,14979,15070,16740.0,8,16745.0,63,16740.0,16740.0,16740.0,16740.0,56,22,16735,93,16740,2
2016-08-30 10:21:00,10:21:06,10:21:06,15087,15087,16735.0,82,16740.0,35,16740.0,16740.0,16740.0,16740.0,1,1,16735,83,16740,34
2016-08-30 10:22:00,10:22:00,10:22:00,0,0,0.0,0,0.0,0,16740.0,16740.0,16740.0,16740.0,0,0,0,0,0,0
2016-08-30 10:23:00,10:23:09,10:23:43,15135,15184,16735.0,82,16740.0,56,16735.0,16735.0,16735.0,16735.0,115,-115,16735,5,16740,70
2016-08-30 10:24:00,10:24:09,10:24:36,15207,15232,16735.0,51,16740.0,42,16735.0,16735.0,16735.0,16735.0,6,-6,16735,43,16740,53
2016-08-30 10:25:00,10:25:04,10:25:52,15253,15370,16735.0,51,16740.0,49,16740.0,16740.0,16740.0,16740.0,132,-22,16735,64,16740,16
2016-08-30 10:26:00,10:26:03,10:26:31,15388,15431,16735.0,69,16740.0,25,16740.0,16745.0,16740.0,16740.0,57,26,16740,28,16745,115
2016-08-30 10:27:00,10:27:20,10:27:27,15453,15483,16740.0,29,16745.0,121,16740.0,16740.0,16740.0,16740.0,49,-17,16740,6,16745,109
2016-08-30 10:28:00,10:28:46,10:28:59,15512,15527,16740.0,17,16745.0,125,16740.0,16745.0,16740.0,16745.0,6,-4,16740,24,16745,117
2016-08-30 10:29:00,10:29:18,10:29:58,15545,15653,16740.0,4,16745.0,119,16745.0,16745.0,16735.0,16735.0,84,42,16735,57,16740,34
2016-08-30 10:30:00,10:30:12,10:30:43,15672,15778,16735.0,56,16740.0,34,16735.0,16740.0,16730.0,16730.0,97,-41,16730,43,16735,38
2016-08-30 10:31:00,10:31:00,10:31:00,0,0,0.0,0,0.0,0,16730.0,16730.0,16730.0,16730.0,0,0,0,0,0,0
2016-08-30 10:32:00,10:32:07,10:32:47,15828,15840,16730.0,56,16735.0,46,16730.0,16730.0,16730.0,16730.0,4,-4,16730,56,16735,46
2016-08-30 10:33:00,10:33:00,10:33:00,0,0,0.0,0,0.0,0,16730.0,16730.0,16730.0,16730.0,0,0,0,0,0,0
2016-08-30 10:34:00,10:34:45,10:34:45,15895,15895,16730.0,59,16735.0,47,16730.0,16730.0,16730.0,16730.0,1,-1,16730,58,16735,50
2016-08-30 10:35:00,10:35:15,10:35:15,15913,15913,16730.0,55,16735.0,47,16730.0,16730.0,16730.0,16730.0,1,-1,16730,54,16735,46
2016-08-30 10:36:00,10:36:22,10:36:52,15936,16029,16730.0,63,16735.0,40,16735.0,16735.0,16735.0,16735.0,103,71,16735,2,16740,46
2016-08-30 10:37:00,10:37:12,10:37:12,16054,16068,16735.0,49,16740.0,41,16740.0,16740.0,16740.0,16740.0,11,11,16735,61,16740,26
2016-08-30 10:38:00,10:38:22,10:38:22,16090,16090,16735.0,52,16740.0,36,16735.0,16735.0,16735.0,16735.0,1,-1,16735,51,16740,38
2016-08-30 10:39:00,10:39:34,10:39:34,16123,16148,16735.0,35,16740.0,45,16735.0,16735.0,16735.0,16735.0,47,-21,16735,23,16740,47
2016-08-30 10:40:00,10:40:12,10:40:51,16179,16255,16735.0,40,16740.0,39,16735.0,16745.0,16735.0,16740.0,150,146,16740,78,16745,13
2016-08-30 10:41:00,10:41:00,10:41:00,0,0,0.0,0,0.0,0,16740.0,16740.0,16740.0,16740.0,0,0,0,0,0,0
2016-08-30 10:42:00,10:42:36,10:42:36,16281,16281,16740.0,76,16745.0,56,16740.0,16740.0,16740.0,16740.0,1,-1,16740,70,16745,57
2016-08-30 10:43:00,10:43:00,10:43:00,0,0,0.0,0,0.0,0,16740.0,16740.0,16740.0,16740.0,0,0,0,0,0,0
2016-08-30 10:44:00,10:44:06,10:44:30,16302,16311,16740.0,62,16745.0,65,16745.0,16745.0,16745.0,16745.0,2,2,16740,69,16745,51
2016-08-30 10:45:00,10:45:00,10:45:00,16322,16322,16740.0,68,16745.0,55,16740.0,16740.0,16740.0,16740.0,1,-1,16740,66,16745,53
2016-08-30 10:46:00,10:46:28,10:46:41,16347,16389,16740.0,64,16745.0,60,16740.0,16740.0,16740.0,16740.0,87,-63,16735,50,16740,7
2016-08-30 10:47:00,10:47:00,10:47:00,0,0,0.0,0,0.0,0,16740.0,16740.0,16740.0,16740.0,0,0,0,0,0,0
2016-08-30 10:48:00,10:48:22,10:48:45,16425,16460,16735.0,49,16740.0,33,16735.0,16735.0,16735.0,16735.0,25,-25,16730,60,16735,11
2016-08-30 10:49:00,10:49:49,10:49:57,16484,16493,16730.0,60,16735.0,20,16730.0,16730.0,16730.0,16730.0,3,-3,16730,56,16735,22
2016-08-30 10:50:00,10:50:26,10:50:26,16511,16511,16730.0,49,16735.0,29,16735.0,16735.0,16735.0,16735.0,1,1,16730,50,16735,28
2016-08-30 10:51:00,10:51:01,10:51:15,16524,16580,16730.0,64,16735.0,27,16735.0,16735.0,16735.0,16735.0,45,9,16730,72,16740,47
2016-08-30 10:52:00,10:52:18,10:52:18,16599,16599,16735.0,23,16740.0,48,16735.0,16735.0,16735.0,16735.0,1,-1,16735,22,16740,47
2016-08-30 10:53:00,10:53:29,10:53:29,16628,16628,16735.0,1,16740.0,49,16735.0,16735.0,16735.0,16735.0,1,-1,16730,72,16740,52
2016-08-30 10:54:00,10:54:45,10:54:45,16663,16663,16735.0,20,16740.0,50,16735.0,16735.0,16735.0,16735.0,1,-1,16735,19,16740,49
2016-08-30 10:55:00,10:55:45,10:55:47,16684,16711,16735.0,44,16740.0,37,16740.0,16740.0,16735.0,16740.0,38,34,16735,44,16740,17
2016-08-30 10:56:00,10:56:00,10:56:00,0,0,0.0,0,0.0,0,16740.0,16740.0,16740.0,16740.0,0,0,0,0,0,0
2016-08-30 10:57:00,10:57:08,10:57:20,16749,16759,16735.0,43,16740.0,24,16735.0,16740.0,16735.0,16740.0,3,1,16735,38,16740,25
2016-08-30 10:58:00,10:58:52,10:58:58,16790,16808,16735.0,35,16740.0,30,16740.0,16740.0,16740.0,16740.0,13,11,16735,45,16740,11
2016-08-30 10:59:00,10:59:47,10:59:47,16828,16840,16735.0,39,16740.0,12,16740.0,16740.0,16740.0,16740.0,18,18,16735,41,16740,6
2016-08-30 11:00:00,11:00:00,11:00:26,16847,16890,16735.0,40,16740.0,4,16740.0,16745.0,16740.0,16740.0,33,5,16735,42,16740,2
2016-08-30 11:01:00,11:01:04,11:01:36,16910,16932,16740.0,2,16745.0,58,16740.0,16740.0,16740.0,16740.0,15,11,16740,9,16745,58
2016-08-30 11:02:00,11:02:34,11:02:51,16950,16970,16740.0,4,16745.0,56,16740.0,16740.0,16740.0,16740.0,13,-13,16735,40,16740,3
2016-08-30 11:03:00,11:03:00,11:03:00,0,0,0.0,0,0.0,0,16740.0,16740.0,16740.0,16740.0,0,0,0,0,0,0
2016-08-30 11:04:00,11:04:09,11:04:31,17006,17022,16735.0,35,16740.0,25,16735.0,16735.0,16735.0,16735.0,2,-2,16735,29,16740,35
2016-08-30 11:05:00,11:05:00,11:05:00,0,0,0.0,0,0.0,0,16735.0,16735.0,16735.0,16735.0,0,0,0,0,0,0
2016-08-30 11:06:00,11:06:36,11:06:41,17052,17082,16735.0,38,16740.0,39,16735.0,16735.0,16735.0,16735.0,47,-37,16735,10,16740,47
2016-08-30 11:07:00,11:07:00,11:07:00,0,0,0.0,0,0.0,0,16735.0,16735.0,16735.0,16735.0,0,0,0,0,0,0
2016-08-30 11:08:00,11:08:47,11:08:59,17112,17170,16735.0,36,16740.0,36,16735.0,16740.0,16735.0,16740.0,92,58,16735,47,16740,2
2016-08-30 11:09:00,11:09:00,11:09:12,17173,17182,16735.0,47,16740.0,2,16740.0,16740.0,16740.0,16740.0,14,-4,16735,41,16740,8
2016-08-30 11:10:00,11:10:00,11:10:00,0,0,0.0,0,0.0,0,16740.0,16740.0,16740.0,16740.0,0,0,0,0,0,0
2016-08-30 11:11:00,11:11:15,11:11:59,17213,17250,16735.0,34,16740.0,31,16735.0,16735.0,16735.0,16735.0,42,-42,16730,70,16735,2
2016-08-30 11:12:00,11:12:22,11:12:22,17257,17257,16730.0,65,16735.0,9,16735.0,16735.0,16735.0,16735.0,2,2,16730,66,16735,6
2016-08-30 11:13:00,11:13:19,11:13:52,17263,17311,16730.0,66,16735.0,12,16730.0,16730.0,16725.0,16730.0,73,-67,16725,38,16730,25
2016-08-30 11:14:00,11:14:15,11:14:46,17325,17342,16725.0,25,16730.0,48,16725.0,16725.0,16725.0,16725.0,3,-3,16725,29,16730,36
2016-08-30 11:15:00,11:15:00,11:15:52,17351,17446,16725.0,23,16730.0,48,16725.0,16725.0,16725.0,16725.0,90,-32,16720,36,16725,4
2016-08-30 11:16:00,11:16:04,11:16:16,17458,17516,16720.0,32,16725.0,21,16720.0,16720.0,16720.0,16720.0,65,-47,16720,14,16725,40
2016-08-30 11:17:00,11:17:27,11:17:52,17535,17587,16720.0,31,16725.0,36,16725.0,16730.0,16725.0,16725.0,59,41,16725,6,16730,44
2016-08-30 11:18:00,11:18:54,11:18:54,17607,17607,16725.0,19,16730.0,45,16725.0,16725.0,16725.0,16725.0,2,-2,16725,13,16730,44
2016-08-30 11:19:00,11:19:01,11:19:55,17612,17672,16725.0,8,16730.0,45,16725.0,16735.0,16725.0,16735.0,36,22,16730,15,16735,42
2016-08-30 11:20:00,11:20:12,11:20:42,17684,17739,16730.0,23,16735.0,42,16735.0,16735.0,16735.0,16735.0,38,36,16730,25,16735,30
2016-08-30 11:21:00,11:21:26,11:21:56,17748,17811,16730.0,23,16735.0,38,16730.0,16735.0,16730.0,16730.0,66,-64,16730,1,16735,46
2016-08-30 11:22:00,11:22:02,11:22:43,17814,17837,16730.0,1,16735.0,46,16735.0,16735.0,16730.0,16735.0,7,5,16730,10,16735,42
2016-08-30 11:23:00,11:23:02,11:23:43,17845,17882,16730.0,8,16735.0,44,16735.0,16735.0,16725.0,16730.0,19,-13,16725,31,16730,25
2016-08-30 11:24:00,11:24:02,11:24:44,17890,17913,16725.0,32,16730.0,20,16730.0,16730.0,16730.0,16730.0,17,17,16725,31,16730,25
2016-08-30 11:25:00,11:25:03,11:25:44,17918,17944,16725.0,32,16730.0,26,16730.0,16730.0,16730.0,16730.0,5,5,16725,28,16730,25
2016-08-30 11:26:00,11:26:14,11:26:33,17958,17965,16725.0,35,16730.0,28,16730.0,16730.0,16725.0,16730.0,3,1,16725,33,16730,23
2016-08-30 11:27:00,11:27:03,11:27:33,17970,18002,16725.0,35,16730.0,23,16730.0,16730.0,16730.0,16730.0,30,30,16725,40,16730,1
2016-08-30 11:28:00,11:28:03,11:28:45,18014,18038,16725.0,37,16730.0,11,16730.0,16730.0,16725.0,16725.0,4,2,16725,37,16730,10
2016-08-30 11:29:00,11:29:15,11:29:53,18047,18083,16725.0,39,16730.0,1,16730.0,16730.0,16725.0,16730.0,15,3,16730,13,16735,41
2016-08-30 11:30:00,11:30:00,11:30:11,18097,18148,16730.0,13,16735.0,38,16735.0,16735.0,16735.0,16735.0,61,61,16730,46,16735,13
2016-08-30 11:31:00,11:31:40,11:31:40,18208,18208,16730.0,43,16735.0,38,16730.0,16730.0,16730.0,16730.0,1,-1,16730,47,16735,37
2016-08-30 11:32:00,11:32:18,11:32:49,18236,18328,16730.0,53,16735.0,33,16735.0,16740.0,16735.0,16740.0,91,89,16735,55,16740,14
2016-08-30 11:33:00,11:33:04,11:33:51,18353,18481,16735.0,46,16740.0,42,16740.0,16750.0,16740.0,16750.0,127,127,16745,36,16750,23
2016-08-30 11:34:00,11:34:14,11:34:47,18509,18575,16745.0,48,16750.0,28,16750.0,16750.0,16750.0,16750.0,54,52,16750,15,16755,29
2016-08-30 11:35:00,11:35:14,11:35:16,18615,18671,16750.0,42,16755.0,37,16750.0,16750.0,16745.0,16745.0,85,-43,16745,5,16750,105
2016-08-30 11:36:00,11:36:27,11:36:45,18742,18769,16745.0,45,16750.0,57,16750.0,16750.0,16750.0,16750.0,34,34,16750,15,16755,51
2016-08-30 11:37:00,11:37:28,11:37:55,18823,18915,16750.0,27,16755.0,49,16750.0,16750.0,16745.0,16750.0,108,34,16745,53,16750,10
2016-08-30 11:38:00,11:38:18,11:38:45,18940,19047,16745.0,47,16750.0,37,16750.0,16755.0,16750.0,16750.0,130,-24,16750,6,16755,41
2016-08-30 11:39:00,11:39:13,11:39:45,19080,19299,16750.0,22,16755.0,38,16750.0,16750.0,16730.0,16745.0,358,16,16740,69,16745,19
2016-08-30 11:40:00,11:40:01,11:40:58,19326,19495,16740.0,45,16745.0,45,16740.0,16740.0,16735.0,16735.0,294,-176,16730,43,16740,45
2016-08-30 11:41:00,11:41:28,11:41:56,19527,19587,16735.0,41,16740.0,30,16740.0,16740.0,16740.0,16740.0,70,16,16735,61,16740,14
2016-08-30 11:42:00,11:42:31,11:42:31,19614,19635,16735.0,39,16740.0,33,16735.0,16735.0,16735.0,16735.0,34,-34,16735,2,16740,46
2016-08-30 11:43:00,11:43:00,11:43:54,19664,19724,16735.0,43,16740.0,26,16735.0,16735.0,16730.0,16730.0,13,-13,16730,33,16735,34
2016-08-30 11:44:00,11:44:07,11:44:37,19731,19784,16730.0,30,16735.0,27,16735.0,16735.0,16735.0,16735.0,29,17,16730,38,16740,44
2016-08-30 11:45:00,11:45:40,11:45:40,19820,19820,16730.0,31,16735.0,28,16730.0,16730.0,16730.0,16730.0,2,-2,16730,29,16735,26
2016-08-30 11:46:00,11:46:13,11:46:49,19856,19904,16730.0,41,16735.0,28,16735.0,16740.0,16735.0,16740.0,35,33,16735,44,16740,27
2016-08-30 11:47:00,11:47:07,11:47:59,19922,20009,16735.0,100,16740.0,18,16740.0,16740.0,16735.0,16740.0,160,-46,16740,2,16740,2
2016-08-30 11:48:00,11:48:00,11:48:19,20013,20055,16735.0,59,16740.0,2,16740.0,16740.0,16740.0,16740.0,41,-39,16735,44,16740,27
2016-08-30 11:49:00,11:49:00,11:49:00,0,0,0.0,0,0.0,0,16740.0,16740.0,16740.0,16740.0,0,0,0,0,0,0
2016-08-30 11:50:00,11:50:00,11:50:53,20115,20178,16735.0,29,16740.0,43,16735.0,16735.0,16730.0,16730.0,35,-25,16730,27,16735,55
2016-08-30 11:51:00,11:51:01,11:51:46,20187,20311,16730.0,32,16735.0,55,16730.0,16730.0,16720.0,16725.0,127,-57,16720,36,16725,16
2016-08-30 11:52:00,11:52:00,11:52:32,20329,20389,16720.0,32,16725.0,29,16725.0,16725.0,16725.0,16725.0,76,32,16720,40,16730,59
2016-08-30 11:53:00,11:53:31,11:53:31,20424,20436,16725.0,20,16730.0,49,16725.0,16725.0,16725.0,16725.0,20,-20,16720,36,16725,35
2016-08-30 11:54:00,11:54:15,11:54:53,20475,20522,16720.0,42,16725.0,38,16725.0,16730.0,16725.0,16730.0,63,53,16725,33,16730,36
2016-08-30 11:55:00,11:55:29,11:55:57,20571,20608,16725.0,21,16730.0,40,16725.0,16725.0,16725.0,16725.0,18,-18,16725,6,16730,44
2016-08-30 11:56:00,11:56:00,11:56:00,0,0,0.0,0,0.0,0,16725.0,16725.0,16725.0,16725.0,0,0,0,0,0,0
2016-08-30 11:57:00,11:57:05,11:57:05,20645,20645,16725.0,25,16730.0,43,16730.0,16730.0,16730.0,16730.0,1,1,16725,24,16730,42
2016-08-30 11:58:00,11:58:06,11:58:57,20681,20809,16725.0,34,16730.0,42,16730.0,16730.0,16730.0,16730.0,88,38,16725,42,16730,8
2016-08-30 11:59:00,11:59:10,11:59:55,20829,20879,16725.0,51,16730.0,9,16725.0,16725.0,16725.0,16725.0,60,-58,16720,41,16725,35
2016-08-30 12:00:00,12:00:08,12:00:23,20893,20907,16720.0,32,16725.0,49,16720.0,16725.0,16720.0,16725.0,29,25,16720,34,16725,32
2016-08-30 12:01:00,12:01:49,12:01:49,20952,20952,16720.0,36,16725.0,28,16720.0,16720.0,16720.0,16720.0,1,-1,16720,35,16725,29
2016-08-30 12:02:00,12:02:37,12:02:59,20974,21057,16720.0,39,16725.0,28,16720.0,16720.0,16720.0,16720.0,92,-90,16715,39,16720,30
2016-08-30 12:03:00,12:03:12,12:03:17,21071,21136,16715.0,40,16720.0,32,16720.0,16720.0,16720.0,16720.0,92,-8,16720,34,16725,26
2016-08-30 12:04:00,12:04:26,12:04:26,21154,21166,16720.0,43,16725.0,21,16725.0,16725.0,16725.0,16725.0,20,20,16725,15,16730,41
2016-08-30 12:05:00,12:05:05,12:05:54,21192,21238,16725.0,28,16730.0,45,16730.0,16730.0,16725.0,16725.0,33,13,16725,3,16730,100
2016-08-30 12:06:00,12:06:34,12:06:55,21260,21282,16725.0,8,16730.0,100,16725.0,16725.0,16725.0,16725.0,17,-17,16725,4,16730,98
2016-08-30 12:07:00,12:07:20,12:07:58,21304,21347,16725.0,6,16730.0,99,16725.0,16725.0,16725.0,16725.0,14,-12,16720,46,16730,105
2016-08-30 12:08:00,12:08:36,12:08:36,21377,21378,16720.0,31,16725.0,23,16725.0,16725.0,16725.0,16725.0,2,2,16720,44,16725,9
2016-08-30 12:09:00,12:09:36,12:09:39,21416,21448,16720.0,46,16725.0,30,16725.0,16725.0,16725.0,16725.0,54,8,16720,37,16725,6
2016-08-30 12:10:00,12:10:20,12:10:21,21477,21486,16720.0,41,16725.0,16,16725.0,16725.0,16725.0,16725.0,15,7,16720,50,16730,78
2016-08-30 12:11:00,12:11:22,12:11:45,21531,21559,16725.0,6,16730.0,72,16725.0,16725.0,16725.0,16725.0,12,-6,16720,50,16725,3
2016-08-30 12:12:00,12:12:50,12:12:58,21593,21602,16720.0,40,16725.0,3,16725.0,16725.0,16725.0,16725.0,8,-2,16720,48,16725,12
2016-08-30 12:13:00,12:13:25,12:13:26,21622,21628,16720.0,43,16725.0,8,16725.0,16725.0,16725.0,16725.0,9,1,16720,48,16725,6
2016-08-30 12:14:00,12:14:00,12:14:20,21648,21660,16720.0,28,16725.0,25,16725.0,16725.0,16725.0,16725.0,2,2,16720,28,16725,30
2016-08-30 12:15:00,12:15:19,12:15:19,21709,21723,16720.0,36,16725.0,21,16725.0,16725.0,16725.0,16725.0,23,23,16720,41,16725,6
2016-08-30 12:16:00,12:16:51,12:16:51,21764,21764,16720.0,50,16725.0,15,16720.0,16720.0,16720.0,16720.0,1,-1,16720,51,16725,16
2016-08-30 12:17:00,12:17:00,12:17:00,0,0,0.0,0,0.0,0,16720.0,16720.0,16720.0,16720.0,0,0,0,0,0,0
2016-08-30 12:18:00,12:18:03,12:18:44,21786,21825,16720.0,50,16725.0,13,16720.0,16725.0,16720.0,16725.0,19,15,16720,42,16725,13
2016-08-30 12:19:00,12:19:00,12:19:00,0,0,0.0,0,0.0,0,16725.0,16725.0,16725.0,16725.0,0,0,0,0,0,0
2016-08-30 12:20:00,12:20:32,12:20:41,21896,21931,16720.0,35,16725.0,42,16720.0,16720.0,16720.0,16720.0,44,0,16720,20,16725,38
2016-08-30 12:21:00,12:21:08,12:21:08,21960,21973,16720.0,41,16725.0,18,16720.0,16720.0,16720.0,16720.0,30,-30,16720,8,16725,26
2016-08-30 12:22:00,12:22:01,12:22:32,21998,22041,16720.0,37,16725.0,15,16725.0,16725.0,16725.0,16725.0,60,24,16720,49,16725,2
2016-08-30 12:23:00,12:23:30,12:23:30,22065,22065,16720.0,39,16725.0,22,16725.0,16725.0,16725.0,16725.0,1,1,16720,38,16725,20
2016-08-30 12:24:00,12:24:00,12:24:00,0,0,0.0,0,0.0,0,16725.0,16725.0,16725.0,16725.0,0,0,0,0,0,0
2016-08-30 12:25:00,12:25:16,12:25:34,22098,22139,16720.0,35,16725.0,26,16725.0,16725.0,16725.0,16725.0,37,19,16720,53,16730,77
2016-08-30 12:26:00,12:26:16,12:26:59,22158,22245,16720.0,42,16725.0,13,16720.0,16725.0,16720.0,16725.0,88,-28,16720,60,16725,2
2016-08-30 12:27:00,12:27:00,12:27:06,22248,22259,16720.0,60,16725.0,2,16725.0,16725.0,16725.0,16725.0,9,-1,16725,4,16730,73
2016-08-30 12:28:00,12:28:39,12:28:39,22274,22280,16725.0,6,16730.0,72,16725.0,16725.0,16725.0,16725.0,10,-10,16725,5,16730,71
2016-08-30 12:29:00,12:29:00,12:29:00,0,0,0.0,0,0.0,0,16725.0,16725.0,16725.0,16725.0,0,0,0,0,0,0
2016-08-30 12:30:00,12:30:27,12:30:45,22323,22401,16725.0,43,16730.0,59,16730.0,16730.0,16730.0,16730.0,82,58,16730,10,16735,101
2016-08-30 12:31:00,12:31:01,12:31:40,22417,22487,16730.0,13,16735.0,102,16730.0,16730.0,16730.0,16730.0,53,-31,16730,3,16735,110
2016-08-30 12:32:00,12:32:00,12:32:00,0,0,0.0,0,0.0,0,16730.0,16730.0,16730.0,16730.0,0,0,0,0,0,0
2016-08-30 12:33:00,12:33:00,12:33:35,22517,22545,16730.0,32,16735.0,97,16735.0,16735.0,16730.0,16730.0,18,-16,16730,3,16735,99
2016-08-30 12:34:00,12:34:11,12:34:12,22561,22570,16730.0,18,16735.0,96,16730.0,16730.0,16730.0,16730.0,7,-7,16730,9,16735,96
2016-08-30 12:35:00,12:35:00,12:35:00,0,0,0.0,0,0.0,0,16730.0,16730.0,16730.0,16730.0,0,0,0,0,0,0
2016-08-30 12:36:00,12:36:00,12:36:00,0,0,0.0,0,0.0,0,16730.0,16730.0,16730.0,16730.0,0,0,0,0,0,0
2016-08-30 12:37:00,12:37:00,12:37:00,0,0,0.0,0,0.0,0,16730.0,16730.0,16730.0,16730.0,0,0,0,0,0,0
2016-08-30 12:38:00,12:38:17,12:38:22,22688,22733,16730.0,32,16735.0,101,16730.0,16730.0,16730.0,16730.0,56,-13,16730,3,16735,96
2016-08-30 12:39:00,12:39:05,12:39:20,22767,22791,16730.0,34,16735.0,93,16730.0,16730.0,16730.0,16730.0,31,-31,16730,27,16735,66
2016-08-30 12:40:00,12:40:00,12:40:00,0,0,0.0,0,0.0,0,16730.0,16730.0,16730.0,16730.0,0,0,0,0,0,0
2016-08-30 12:41:00,12:41:50,12:41:50,22852,22852,16730.0,43,16735.0,67,16735.0,16735.0,16735.0,16735.0,10,10,16730,44,16735,55
2016-08-30 12:42:00,12:42:10,12:42:10,22861,22861,16730.0,40,16735.0,58,16735.0,16735.0,16735.0,16735.0,1,1,16730,41,16735,55
2016-08-30 12:43:00,12:43:00,12:43:00,0,0,0.0,0,0.0,0,16735.0,16735.0,16735.0,16735.0,0,0,0,0,0,0
2016-08-30 12:44:00,12:44:00,12:44:00,0,0,0.0,0,0.0,0,16735.0,16735.0,16735.0,16735.0,0,0,0,0,0,0
2016-08-30 12:45:00,12:45:03,12:45:52,22900,22912,16730.0,44,16735.0,65,16730.0,16730.0,16730.0,16730.0,4,-4,16730,27,16735,67
2016-08-30 12:46:00,12:46:06,12:46:54,22922,22941,16730.0,31,16735.0,67,16735.0,16735.0,16730.0,16730.0,34,-28,16725,80,16735,74
2016-08-30 12:47:00,12:47:14,12:47:15,22959,22967,16725.0,61,16730.0,52,16725.0,16730.0,16725.0,16730.0,7,-3,16725,54,16730,52
2016-08-30 12:48:00,12:48:05,12:48:52,22999,23068,16725.0,52,16730.0,66,16730.0,16730.0,16730.0,16730.0,61,59,16730,2,16735,58
2016-08-30 12:49:00,12:49:39,12:49:59,23085,23095,16730.0,17,16735.0,55,16730.0,16730.0,16730.0,16730.0,5,-5,16730,13,16735,62
2016-08-30 12:50:00,12:50:00,12:50:50,23097,23156,16730.0,13,16735.0,56,16730.0,16730.0,16730.0,16730.0,72,-33,16730,1,16735,59
2016-08-30 12:51:00,12:51:00,12:51:48,23165,23184,16730.0,2,16735.0,60,16735.0,16735.0,16730.0,16730.0,10,-6,16725,79,16730,26
2016-08-30 12:52:00,12:52:29,12:52:50,23222,23264,16725.0,73,16730.0,32,16730.0,16730.0,16730.0,16730.0,57,15,16725,79,16730,9
2016-08-30 12:53:00,12:53:08,12:53:31,23279,23323,16725.0,74,16730.0,18,16730.0,16730.0,16730.0,16730.0,29,17,16725,73,16730,8
2016-08-30 12:54:00,12:54:00,12:54:00,0,0,0.0,0,0.0,0,16730.0,16730.0,16730.0,16730.0,0,0,0,0,0,0
2016-08-30 12:55:00,12:55:08,12:55:49,23357,23428,16730.0,33,16735.0,51,16735.0,16735.0,16735.0,16735.0,65,33,16730,44,16735,13
2016-08-30 12:56:00,12:56:38,12:56:44,23476,23511,16730.0,37,16735.0,38,16730.0,16735.0,16730.0,16735.0,38,-18,16730,53,16735,22
2016-08-30 12:57:00,12:57:00,12:57:00,0,0,0.0,0,0.0,0,16735.0,16735.0,16735.0,16735.0,0,0,0,0,0,0
2016-08-30 12:58:00,12:58:06,12:58:25,23536,23577,16730.0,58,16735.0,21,16735.0,16735.0,16735.0,16735.0,41,23,16735,9,16740,64
2016-08-30 12:59:00,12:59:35,12:59:37,23608,23616,16735.0,17,16740.0,65,16735.0,16735.0,16735.0,16735.0,10,-8,16730,45,16735,35
2016-08-30 13:00:00,13:00:00,13:00:15,23629,23681,16730.0,47,16735.0,46,16735.0,16735.0,16735.0,16735.0,60,26,16730,71,16735,7
2016-08-30 13:01:00,13:01:05,13:01:05,23722,23722,16730.0,47,16735.0,39,16730.0,16730.0,16730.0,16730.0,1,-1,16730,25,16735,48
2016-08-30 13:02:00,13:02:06,13:02:34,23764,23824,16730.0,31,16735.0,52,16735.0,16735.0,16730.0,16730.0,61,-56,16730,7,16735,49
2016-08-30 13:03:00,13:03:11,13:03:19,23851,23873,16730.0,14,16735.0,55,16730.0,16730.0,16730.0,16730.0,31,-23,16730,31,16735,46
2016-08-30 13:04:00,13:04:00,13:04:00,0,0,0.0,0,0.0,0,16730.0,16730.0,16730.0,16730.0,0,0,0,0,0,0
2016-08-30 13:05:00,13:05:05,13:05:32,23937,23987,16730.0,55,16735.0,56,16735.0,16740.0,16735.0,16740.0,64,64,16735,51,16740,56
2016-08-30 13:06:00,13:06:08,13:06:37,24009,24045,16735.0,64,16740.0,54,16740.0,16740.0,16740.0,16740.0,23,23,16735,63,16740,36
2016-08-30 13:07:00,13:07:06,13:07:51,24058,24087,16735.0,69,16740.0,45,16740.0,16740.0,16735.0,16740.0,9,5,16735,62,16740,42
2016-08-30 13:08:00,13:08:01,13:08:26,24093,24177,16735.0,63,16740.0,43,16735.0,16740.0,16735.0,16735.0,91,-73,16735,22,16740,47
2016-08-30 13:09:00,13:09:00,13:09:00,0,0,0.0,0,0.0,0,16735.0,16735.0,16735.0,16735.0,0,0,0,0,0,0
2016-08-30 13:10:00,13:10:03,13:10:35,24222,24247,16735.0,42,16740.0,47,16735.0,16740.0,16735.0,16735.0,6,-2,16735,21,16740,52
2016-08-30 13:11:00,13:11:07,13:11:34,24263,24274,16735.0,29,16740.0,54,16735.0,16740.0,16735.0,16735.0,6,0,16735,26,16740,48
2016-08-30 13:12:00,13:12:03,13:12:20,24292,24308,16735.0,32,16740.0,45,16740.0,16740.0,16735.0,16740.0,7,3,16735,25,16740,49
2016-08-30 13:13:00,13:13:02,13:13:51,24324,24402,16735.0,25,16740.0,50,16735.0,16740.0,16735.0,16735.0,54,-17,16730,74,16740,50
2016-08-30 13:14:00,13:14:35,13:14:37,24431,24437,16735.0,20,16740.0,51,16735.0,16740.0,16735.0,16740.0,4,0,16735,29,16740,50
2016-08-30 13:15:00,13:15:02,13:15:40,24465,24573,16735.0,28,16740.0,53,16735.0,16735.0,16735.0,16735.0,104,-96,16735,7,16740,56
2016-08-30 13:16:00,13:16:06,13:16:36,24596,24620,16735.0,6,16740.0,59,16735.0,16735.0,16730.0,16730.0,7,-7,16730,66,16735,16
2016-08-30 13:17:00,13:17:06,13:17:56,24648,24698,16730.0,61,16735.0,27,16730.0,16735.0,16730.0,16730.0,35,-33,16730,21,16735,49
2016-08-30 13:18:00,13:18:04,13:18:44,24706,24739,16730.0,39,16735.0,37,16730.0,16735.0,16730.0,16730.0,12,-8,16730,30,16735,45
2016-08-30 13:19:00,13:19:04,13:19:37,24745,24796,16730.0,24,16735.0,48,16730.0,16730.0,16725.0,16725.0,27,-27,16725,70,16730,31
2016-08-30 13:20:00,13:20:00,13:20:35,24805,24873,16725.0,70,16730.0,30,16730.0,16730.0,16730.0,16730.0,52,16,16730,28,16735,61
2016-08-30 13:21:00,13:21:05,13:21:54,24882,24892,16730.0,34,16735.0,61,16730.0,16735.0,16730.0,16735.0,2,0,16730,25,16735,63
2016-08-30 13:22:00,13:22:06,13:22:36,24898,24913,16730.0,26,16735.0,62,16730.0,16730.0,16730.0,16730.0,5,-5,16730,20,16735,61
2016-08-30 13:23:00,13:23:06,13:23:36,24927,24945,16730.0,21,16735.0,63,16730.0,16730.0,16730.0,16730.0,7,-7,16730,23,16735,61
2016-08-30 13:24:00,13:24:03,13:24:37,24965,25026,16730.0,15,16735.0,58,16730.0,16730.0,16725.0,16725.0,33,-31,16725,72,16730,22
2016-08-30 13:25:00,13:25:01,13:25:59,25052,25105,16725.0,75,16730.0,36,16725.0,16730.0,16725.0,16725.0,8,-6,16725,87,16730,60
2016-08-30 13:26:00,13:26:00,13:26:59,25106,25156,16725.0,81,16730.0,58,16725.0,16730.0,16725.0,16730.0,25,9,16725,78,16730,47
2016-08-30 13:27:00,13:27:00,13:27:48,25158,25251,16725.0,82,16730.0,47,16725.0,16725.0,16725.0,16725.0,104,-22,16725,20,16730,51
2016-08-30 13:28:00,13:28:01,13:28:57,25257,25348,16725.0,25,16730.0,51,16725.0,16725.0,16725.0,16725.0,62,-22,16720,66,16730,61
2016-08-30 13:29:00,13:29:00,13:29:55,25356,25533,16720.0,57,16725.0,11,16720.0,16730.0,16720.0,16730.0,202,57,16730,1,16735,70
2016-08-30 13:30:00,13:30:00,13:30:44,25541,25592,16730.0,4,16735.0,76,16730.0,16730.0,16730.0,16730.0,47,-36,16725,73,16730,8
2016-08-30 13:31:00,13:31:48,13:31:49,25644,25684,16725.0,43,16730.0,46,16725.0,16730.0,16725.0,16730.0,79,-27,16725,33,16730,28
2016-08-30 13:32:00,13:32:31,13:32:58,25699,25775,16725.0,22,16730.0,49,16725.0,16725.0,16725.0,16725.0,87,21,16720,53,16730,47
2016-08-30 13:33:00,13:33:00,13:33:53,25783,25839,16720.0,53,16725.0,2,16725.0,16725.0,16725.0,16725.0,38,-10,16725,10,16730,38
2016-08-30 13:34:00,13:34:19,13:34:29,25863,25869,16725.0,28,16730.0,36,16725.0,16725.0,16725.0,16725.0,3,-3,16725,23,16730,32
2016-08-30 13:35:00,13:35:07,13:35:51,25905,25966,16725.0,34,16730.0,36,16725.0,16730.0,16725.0,16730.0,77,9,16730,7,16735,56
2016-08-30 13:36:00,13:36:09,13:36:31,25988,26051,16730.0,13,16735.0,57,16730.0,16730.0,16730.0,16730.0,70,-14,16725,43,16730,20
2016-08-30 13:37:00,13:37:00,13:37:06,26068,26108,16725.0,35,16730.0,39,16725.0,16725.0,16725.0,16725.0,66,-62,16725,12,16730,54
2016-08-30 13:38:00,13:38:01,13:38:55,26137,26191,16725.0,26,16730.0,54,16725.0,16725.0,16725.0,16725.0,37,-7,16725,28,16730,62
2016-08-30 13:39:00,13:39:03,13:39:56,26198,26242,16725.0,27,16730.0,64,16725.0,16725.0,16725.0,16725.0,65,-37,16720,49,16725,41
2016-08-30 13:40:00,13:40:24,13:40:25,26272,26276,16720.0,46,16725.0,51,16725.0,16725.0,16720.0,16720.0,6,2,16720,51,16725,48
2016-08-30 13:41:00,13:41:05,13:41:05,26284,26284,16720.0,57,16725.0,48,16720.0,16720.0,16720.0,16720.0,2,-2,16720,56,16725,46
2016-08-30 13:42:00,13:42:01,13:42:52,26309,26377,16720.0,53,16725.0,35,16725.0,16730.0,16720.0,16730.0,35,29,16725,54,16730,12
2016-08-30 13:43:00,13:43:16,13:43:55,26394,26486,16725.0,53,16730.0,28,16730.0,16735.0,16730.0,16730.0,72,68,16725,65,16730,5
2016-08-30 13:44:00,13:44:14,13:44:58,26506,26578,16725.0,58,16730.0,42,16730.0,16730.0,16725.0,16730.0,92,90,16725,60,16730,6
2016-08-30 13:45:00,13:45:01,13:45:30,26583,26719,16725.0,60,16730.0,11,16730.0,16730.0,16730.0,16730.0,179,-27,16725,62,16730,57
2016-08-30 13:46:00,13:46:21,13:46:55,26757,26789,16725.0,67,16730.0,51,16730.0,16730.0,16725.0,16725.0,5,1,16725,71,16730,48
2016-08-30 13:47:00,13:47:04,13:47:45,26793,26817,16725.0,71,16730.0,47,16725.0,16730.0,16725.0,16730.0,7,3,16725,64,16730,25
2016-08-30 13:48:00,13:48:01,13:48:36,26829,26887,16725.0,78,16730.0,33,16725.0,16730.0,16725.0,16730.0,31,27,16725,80,16730,26
2016-08-30 13:49:00,13:49:02,13:49:50,26907,26966,16725.0,78,16730.0,37,16725.0,16730.0,16725.0,16730.0,20,6,16725,73,16730,38
2016-08-30 13:50:00,13:50:11,13:50:53,26985,27026,16725.0,71,16730.0,37,16725.0,16730.0,16725.0,16725.0,15,9,16725,67,16730,35
2016-08-30 13:51:00,13:51:04,13:51:39,27039,27135,16725.0,69,16730.0,34,16725.0,16730.0,16725.0,16730.0,70,50,16730,34,16735,58
2016-08-30 13:52:00,13:52:10,13:52:35,27170,27213,16730.0,54,16735.0,52,16730.0,16735.0,16730.0,16735.0,32,-28,16730,34,16735,55
2016-08-30 13:53:00,13:53:00,13:53:57,27246,27473,16730.0,35,16735.0,64,16730.0,16735.0,16730.0,16730.0,199,-15,16725,75,16730,2
2016-08-30 13:54:00,13:54:03,13:54:56,27479,27580,16730.0,5,16735.0,55,16735.0,16735.0,16730.0,16730.0,66,2,16730,39,16735,42
2016-08-30 13:55:00,13:55:00,13:55:43,27583,27708,16730.0,39,16735.0,42,16730.0,16735.0,16730.0,16735.0,125,52,16735,1,16740,67
2016-08-30 13:56:00,13:56:17,13:56:59,27749,27827,16730.0,60,16735.0,27,16735.0,16735.0,16730.0,16735.0,53,45,16730,68,16735,14
2016-08-30 13:57:00,13:57:03,13:57:58,27840,27909,16730.0,62,16735.0,16,16735.0,16735.0,16730.0,16730.0,16,-2,16730,52,16735,31
2016-08-30 13:58:00,13:58:00,13:58:59,27914,28010,16730.0,54,16735.0,28,16735.0,16735.0,16730.0,16730.0,28,6,16730,87,16735,60
2016-08-30 13:59:00,13:59:00,13:59:59,28013,28318,16730.0,87,16735.0,60,16735.0,16740.0,16730.0,16740.0,299,105,16735,39,16740,61
2016-08-30 14:00:00,14:00:00,14:00:57,28323,28813,16735.0,29,16740.0,63,16740.0,16740.0,16725.0,16730.0,885,-151,16730,67,16735,45
2016-08-30 14:01:00,14:01:00,14:01:59,28817,28924,16730.0,72,16735.0,48,16735.0,16735.0,16730.0,16735.0,137,101,16730,93,16735,20
2016-08-30 14:02:00,14:02:27,14:02:52,28956,29033,16730.0,84,16735.0,34,16735.0,16735.0,16730.0,16730.0,111,25,16730,62,16735,30
2016-08-30 14:03:00,14:03:04,14:03:54,29042,29173,16730.0,75,16735.0,33,16730.0,16735.0,16730.0,16735.0,176,25,16735,15,16740,78
2016-08-30 14:04:00,14:04:00,14:04:59,29180,29274,16735.0,18,16740.0,76,16735.0,16735.0,16730.0,16730.0,66,-54,16730,85,16735,30
2016-08-30 14:05:00,14:05:00,14:05:43,29277,29340,16730.0,85,16735.0,30,16735.0,16735.0,16735.0,16735.0,48,38,16735,31,16740,63
2016-08-30 14:06:00,14:06:00,14:06:59,29353,29476,16735.0,30,16740.0,71,16735.0,16735.0,16730.0,16730.0,141,-97,16730,91,16735,62
2016-08-30 14:07:00,14:07:00,14:07:54,29479,29526,16730.0,91,16735.0,62,16730.0,16740.0,16730.0,16740.0,24,6,16735,29,16740,58
2016-08-30 14:08:00,14:08:01,14:08:53,29534,29858,16735.0,44,16740.0,58,16735.0,16750.0,16735.0,16745.0,801,103,16740,66,16745,45
2016-08-30 14:09:00,14:09:20,14:09:59,29882,29992,16740.0,50,16745.0,94,16745.0,16745.0,16740.0,16740.0,182,-2,16740,11,16745,140
