,ST,ET,sidx,eidx,bB,bBS,bA,bAS,O,H,L,C,V,OF,eB,eBS,eA,eAS
2016-5-24 08:00,08:00:00,08:00:57,1685,2117,16600,8,16605,10,16605,16610,16575,16585,529,-32,16585,8,16590,15
2016-5-24 08:01,08:01:02,08:01:59,2125,2564,16585,11,16590,29,16585,16585,16555,16575,527,-2,16570,13,16575,16
2016-5-24 08:02,08:02:00,08:02:42,2568,2747,16570,11,16575,16,16575,16585,16570,16575,144,-4,16570,23,16575,21
2016-5-24 08:03,08:03:00,08:03:50,2766,2893,16570,21,16575,16,16570,16580,16565,16575,91,13,16575,8,16580,22
2016-5-24 08:04,08:04:01,08:04:53,2910,3155,16575,12,16580,25,16575,16575,16545,16555,315,-151,16550,21,16555,19
2016-5-24 08:05,08:05:03,08:05:59,3163,3477,16550,22,16555,27,16550,16550,16540,16545,391,-74,16540,28,16545,2
2016-5-24 08:06,08:06:00,08:06:48,3480,3642,16540,28,16545,2,16545,16555,16540,16555,118,90,16550,21,16555,20
2016-5-24 08:07,08:07:00,08:07:42,3655,3847,16550,25,16555,21,16555,16570,16550,16560,160,40,16555,15,16560,7
2016-5-24 08:08,08:08:02,08:08:59,3873,4084,16555,21,16560,7,16560,16575,16560,16575,162,10,16570,25,16575,7
2016-5-24 08:09,08:09:02,08:09:57,4090,4278,16570,19,16575,14,16575,16575,16565,16575,174,-6,16575,12,16580,20
2016-5-24 08:10,08:10:01,08:10:59,4286,4627,16575,46,16580,14,16580,16585,16565,16565,384,120,16560,81,16565,37
2016-5-24 08:11,08:11:32,08:11:56,4659,4801,16560,73,16565,46,16560,16560,16550,16550,171,-107,16545,20,16550,18
2016-5-24 08:12,08:12:13,08:12:59,4828,4963,16545,22,16550,29,16545,16555,16545,16555,176,144,16550,90,16555,15
2016-5-24 08:13,08:13:00,08:13:49,4968,5131,16550,92,16555,32,16555,16555,16545,16555,140,-8,16550,22,16555,11
2016-5-24 08:14,08:14:02,08:14:55,5136,5282,16550,20,16555,14,16550,16555,16540,16540,141,-107,16535,23,16540,23
2016-5-24 08:15,08:15:01,08:15:59,5293,5678,16535,7,16540,29,16535,16535,16520,16530,477,35,16530,12,16535,31
2016-5-24 08:16,08:16:05,08:16:56,5685,5852,16530,10,16535,32,16530,16540,16530,16535,132,18,16535,8,16540,37
2016-5-24 08:17,08:17:22,08:17:44,5872,5943,16535,54,16540,27,16540,16540,16535,16535,83,-35,16530,31,16535,19
2016-5-24 08:18,08:18:02,08:18:58,5958,6128,16530,38,16535,9,16535,16535,16525,16525,175,-93,16525,17,16530,20
2016-5-24 08:19,08:19:00,08:19:57,6136,6531,16525,4,16530,40,16525,16525,16515,16515,628,-137,16510,30,16515,13
2016-5-24 08:20,08:20:04,08:20:58,6546,6869,16510,6,16515,36,16510,16520,16500,16520,319,-3,16520,19,16525,38
2016-5-24 08:21,08:21:00,08:21:52,6877,7005,16520,28,16525,17,16525,16530,16520,16525,90,-6,16525,3,16530,29
2016-5-24 08:22,08:22:10,08:22:59,7033,7233,16525,19,16530,26,16530,16530,16520,16525,174,-25,16520,25,16525,3
2016-5-24 08:23,08:23:01,08:23:51,7239,7359,16520,24,16525,13,16520,16520,16515,16515,65,-13,16510,28,16520,32
2016-5-24 08:24,08:24:04,08:24:59,7382,7552,16510,20,16515,23,16510,16515,16505,16510,90,-28,16510,4,16515,28
2016-5-24 08:25,08:25:03,08:25:51,7562,7777,16510,8,16515,28,16510,16515,16510,16515,204,-68,16510,25,16515,77
2016-5-24 08:26,08:26:09,08:26:57,7791,7907,16510,14,16515,87,16510,16510,16505,16505,138,-74,16505,6,16510,94
2016-5-24 08:27,08:27:06,08:27:53,7920,8548,16505,8,16510,94,16505,16540,16490,16530,882,350,16525,30,16530,10
2016-5-24 08:28,08:28:01,08:28:56,8563,8701,16525,13,16530,23,16525,16535,16525,16530,80,18,16530,18,16535,13
2016-5-24 08:29,08:29:07,08:29:58,8705,9095,16530,20,16535,18,16535,16570,16535,16555,462,312,16555,25,16560,22
2016-5-24 08:30,08:30:02,08:30:58,9102,9247,16555,18,16560,26,16555,16555,16545,16545,93,-29,16545,16,16550,30
2016-5-24 08:31,08:31:01,08:31:48,9252,9382,16545,17,16550,29,16545,16550,16535,16535,75,-37,16535,24,16540,7
2016-5-24 08:32,08:32:03,08:32:54,9391,9505,16535,26,16540,6,16540,16550,16535,16550,79,63,16550,9,16555,25
2016-5-24 08:33,08:33:03,08:33:58,9515,9634,16550,20,16555,23,16550,16550,16540,16545,93,-15,16540,23,16545,7
2016-5-24 08:34,08:34:05,08:34:36,9645,9673,16540,23,16545,5,16545,16545,16545,16545,11,-1,16540,23,16545,12
2016-5-24 08:35,08:35:01,08:35:56,9695,10085,16540,6,16545,28,16540,16565,16530,16560,430,43,16555,21,16560,6
2016-5-24 08:36,08:36:02,08:36:57,10092,10378,16555,21,16560,20,16560,16560,16550,16560,335,-105,16560,15,16565,33
2016-5-24 08:37,08:37:01,08:37:55,10382,10555,16560,19,16565,33,16560,16560,16555,16560,168,-64,16555,29,16560,6
2016-5-24 08:38,08:38:01,08:38:51,10565,10640,16555,10,16560,36,16555,16560,16555,16555,57,25,16555,22,16560,33
2016-5-24 08:39,08:39:05,08:39:30,10643,10706,16555,22,16560,33,16560,16560,16560,16560,54,52,16560,9,16565,37
2016-5-24 08:40,08:40:01,08:40:55,10726,10912,16560,26,16565,33,16560,16570,16560,16570,173,49,16565,21,16570,24
2016-5-24 08:41,08:41:01,08:41:57,10917,11192,16565,20,16570,29,16570,16580,16570,16580,255,43,16575,31,16580,13
2016-5-24 08:42,08:42:06,08:42:58,11203,11654,16575,33,16580,16,16580,16580,16550,16575,630,-281,16575,19,16580,16
2016-5-24 08:43,08:43:02,08:43:52,11659,11765,16575,19,16580,19,16575,16575,16570,16570,37,-11,16570,4,16575,32
2016-5-24 08:44,08:44:25,08:44:46,11796,11840,16565,22,16570,17,16565,16570,16565,16570,30,-6,16570,5,16575,26
2016-5-24 08:45,08:45:11,08:45:59,11866,11933,16570,22,16575,24,16570,16570,16565,16565,53,-28,16565,3,16570,22
2016-5-24 08:46,08:46:02,08:46:56,11940,12036,16565,14,16570,26,16565,16570,16565,16565,50,-35,16565,5,16570,26
2016-5-24 08:47,08:47:06,08:47:54,12041,12252,16565,7,16570,27,16565,16565,16555,16555,174,35,16555,8,16560,19
2016-5-24 08:48,08:48:20,08:48:57,12272,12326,16555,17,16560,20,16560,16560,16555,16555,28,2,16550,30,16555,19
2016-5-24 08:49,08:49:01,08:49:19,12331,12396,16550,26,16555,20,16550,16555,16550,16555,76,-38,16555,8,16560,27
2016-5-24 08:50,08:50:04,08:50:56,12432,12513,16555,10,16560,37,16555,16555,16550,16555,70,-12,16555,21,16560,24
2016-5-24 08:51,08:51:14,08:51:58,12521,12653,16555,26,16560,28,16555,16560,16545,16545,101,-28,16540,20,16545,11
2016-5-24 08:52,08:52:01,08:52:50,12659,12812,16540,20,16545,13,16545,16545,16535,16540,121,27,16540,9,16545,16
2016-5-24 08:53,08:53:32,08:53:35,12858,12893,16540,17,16545,21,16540,16540,16535,16535,34,-34,16530,26,16540,27
2016-5-24 08:54,08:54:07,08:54:56,12910,13062,16535,12,16540,29,16540,16555,16540,16555,143,134,16555,12,16560,17
2016-5-24 08:55,08:55:08,08:55:44,13083,13190,16555,16,16560,21,16555,16555,16550,16550,78,-18,16550,9,16555,28
2016-5-24 08:56,08:56:34,08:56:54,13215,13247,16550,44,16555,42,16555,16555,16545,16545,62,-42,16545,15,16550,30
2016-5-24 08:57,08:57:15,08:57:54,13257,13341,16545,13,16550,36,16545,16545,16535,16535,57,-57,16535,6,16540,40
2016-5-24 08:58,08:58:07,08:58:55,13353,13530,16535,20,16540,42,16540,16550,16540,16540,181,39,16535,19,16540,40
2016-5-24 08:59,08:59:10,08:59:59,13546,13883,16535,15,16540,56,16535,16535,16520,16530,514,-220,16530,20,16535,20
2016-5-24 09:00,09:00:01,09:00:56,13888,14187,16530,9,16535,23,16530,16530,16525,16530,300,109,16530,8,16535,23
2016-5-24 09:01,09:01:30,09:01:54,14214,14260,16530,22,16535,10,16535,16540,16535,16540,43,27,16535,20,16540,8
2016-5-24 09:02,09:02:59,09:02:59,14310,14320,16535,7,16540,28,16535,16535,16535,16535,14,-14,16535,12,16540,30
2016-5-24 09:03,09:03:02,09:03:50,14325,14417,16535,13,16540,32,16535,16545,16535,16545,65,13,16545,6,16550,20
2016-5-24 09:04,09:04:07,09:04:42,14435,14516,16545,13,16550,19,16550,16550,16545,16550,31,11,16545,22,16550,5
2016-5-24 09:05,09:05:20,09:05:55,14537,14655,16545,22,16550,7,16550,16555,16550,16550,97,-24,16550,20,16555,19
2016-5-24 09:06,09:06:30,09:06:52,14688,14729,16550,10,16555,25,16550,16550,16545,16545,23,-23,16545,5,16550,27
2016-5-24 09:07,09:07:36,09:07:41,14748,14772,16545,16,16550,25,16550,16550,16550,16550,23,23,16545,31,16550,3
2016-5-24 09:08,09:08:45,09:08:51,14844,14871,16545,16,16550,26,16550,16550,16550,16550,30,8,16550,1,16555,32
2016-5-24 09:09,09:09:04,09:09:57,14895,15012,16545,23,16550,12,16550,16555,16550,16555,80,44,16550,27,16555,3
2016-5-24 09:10,09:10:05,09:10:53,15029,15093,16550,20,16555,13,16555,16560,16550,16555,42,30,16555,16,16560,43
2016-5-24 09:11,09:11:32,09:11:57,15105,15156,16555,16,16560,45,16560,16560,16555,16555,55,29,16550,33,16555,12
2016-5-24 09:12,09:12:00,09:12:00,0,0,0,0,0,0,16555,16555,16555,16555,0,0,0,0,0,0
2016-5-24 09:13,09:13:14,09:13:52,15185,15238,16550,21,16555,26,16550,16555,16550,16555,48,0,16550,22,16555,39
2016-5-24 09:14,09:14:13,09:14:13,15248,15249,16550,29,16555,31,16555,16555,16555,16555,2,2,16550,32,16555,29
2016-5-24 09:15,09:15:14,09:15:59,15269,15442,16550,28,16555,30,16555,16555,16540,16540,142,-38,16535,24,16540,6
2016-5-24 09:16,09:16:06,09:16:42,15461,15553,16535,24,16540,18,16540,16545,16540,16540,66,10,16540,4,16545,24
2016-5-24 09:17,09:17:04,09:17:52,15569,15668,16540,23,16545,22,16540,16540,16535,16540,70,24,16535,34,16545,25
2016-5-24 09:18,09:18:00,09:18:56,15674,15771,16535,33,16545,27,16535,16550,16535,16550,53,22,16550,22,16555,15
2016-5-24 09:19,09:19:02,09:19:53,15781,16008,16550,26,16555,16,16555,16565,16545,16550,165,-20,16545,21,16550,8
2016-5-24 09:20,09:20:03,09:20:58,16018,16137,16545,15,16550,20,16545,16545,16535,16535,69,-41,16535,2,16540,24
2016-5-24 09:21,09:21:08,09:21:46,16151,16233,16535,20,16540,10,16540,16540,16535,16535,58,40,16535,15,16540,12
2016-5-24 09:22,09:22:02,09:22:42,16258,16320,16535,18,16540,15,16540,16540,16530,16530,49,-33,16525,22,16535,25
2016-5-24 09:23,09:23:06,09:23:54,16346,16489,16530,12,16535,19,16535,16540,16535,16540,95,7,16540,8,16545,20
2016-5-24 09:24,09:24:00,09:24:58,16500,16624,16540,22,16545,9,16545,16545,16525,16530,95,-62,16530,12,16535,26
2016-5-24 09:25,09:25:00,09:25:47,16633,16848,16530,14,16535,12,16535,16535,16520,16525,254,-132,16525,3,16530,18
2016-5-24 09:26,09:26:04,09:26:56,16868,17127,16525,16,16530,12,16530,16530,16520,16525,226,-40,16525,6,16530,23
2016-5-24 09:27,09:27:01,09:27:44,17132,17259,16525,11,16530,22,16525,16525,16520,16520,118,-16,16520,14,16525,17
2016-5-24 09:28,09:28:23,09:28:24,17291,17314,16520,15,16525,17,16520,16520,16520,16520,24,-16,16520,9,16525,21
2016-5-24 09:29,09:29:04,09:29:59,17360,17890,16520,7,16525,30,16520,16565,16520,16550,629,276,16545,24,16555,26
2016-5-24 09:30,09:30:04,09:30:53,17901,18152,16550,5,16555,22,16550,16560,16550,16555,222,163,16550,22,16555,4
2016-5-24 09:31,09:31:03,09:31:56,18174,18321,16550,11,16555,25,16550,16555,16550,16555,147,77,16555,10,16560,23
2016-5-24 09:32,09:32:00,09:32:59,18328,18413,16555,14,16560,19,16555,16555,16545,16545,38,-38,16545,2,16545,9
2016-5-24 09:33,09:33:02,09:33:57,18417,18567,16545,6,16550,26,16545,16550,16540,16540,94,16,16535,22,16545,19
2016-5-24 09:34,09:34:08,09:34:38,18584,18654,16540,8,16545,18,16540,16540,16540,16540,42,8,16540,9,16545,17
2016-5-24 09:35,09:35:32,09:35:58,18691,18775,16540,16,16545,29,16540,16540,16540,16540,74,47,16540,12,16545,23
2016-5-24 09:36,09:36:00,09:36:53,18781,18915,16540,6,16545,32,16540,16540,16540,16540,73,27,16540,4,16545,24
2016-5-24 09:37,09:37:00,09:37:46,18926,19055,16540,8,16545,75,16540,16550,16535,16545,122,16,16545,21,16550,9
2016-5-24 09:38,09:38:22,09:38:43,19097,19179,16545,19,16550,15,16550,16550,16550,16550,66,-4,16545,23,16555,26
2016-5-24 09:39,09:39:16,09:39:54,19224,19279,16545,18,16550,16,16550,16550,16550,16550,28,14,16545,35,16550,8
2016-5-24 09:40,09:40:00,09:40:00,0,0,0,0,0,0,16550,16550,16550,16550,0,0,0,0,0,0
2016-5-24 09:41,09:41:04,09:41:20,19331,19422,16545,16,16550,26,16545,16545,16535,16540,88,42,16535,35,16540,9
2016-5-24 09:42,09:42:00,09:42:50,19461,19556,16535,23,16540,13,16540,16545,16540,16545,68,32,16540,24,16550,26
2016-5-24 09:43,09:43:17,09:43:24,19579,19595,16540,4,16545,20,16540,16540,16540,16540,8,-6,16535,28,16545,19
2016-5-24 09:44,09:44:10,09:44:10,19651,19654,16540,15,16545,14,16540,16540,16540,16540,5,-5,16540,4,16545,24
2016-5-24 09:45,09:45:13,09:45:55,19699,19780,16540,11,16545,23,16540,16545,16540,16545,41,35,16545,2,16550,23
2016-5-24 09:46,09:46:13,09:46:13,19793,19794,16545,11,16550,29,16545,16545,16545,16545,2,-2,16540,20,16545,9
2016-5-24 09:47,09:47:09,09:47:57,19830,19958,16540,6,16545,33,16540,16540,16525,16535,115,-33,16535,4,16540,19
2016-5-24 09:48,09:48:26,09:48:26,19987,19987,16535,19,16540,15,16540,16540,16540,16540,2,2,16535,18,16540,14
2016-5-24 09:49,09:49:11,09:49:39,20030,20080,16535,22,16540,13,16540,16540,16530,16535,34,6,16535,9,16540,17
2016-5-24 09:50,09:50:00,09:50:58,20098,20208,16535,15,16540,14,16535,16545,16535,16540,55,27,16535,26,16545,21
2016-5-24 09:51,09:51:00,09:51:00,0,0,0,0,0,0,16540,16540,16540,16540,0,0,0,0,0,0
2016-5-24 09:52,09:52:23,09:52:56,20246,20304,16535,25,16540,14,16540,16545,16540,16545,35,19,16545,12,16550,19
2016-5-24 09:53,09:53:12,09:53:55,20315,20445,16545,14,16550,4,16550,16550,16535,16535,77,-17,16535,9,16540,19
2016-5-24 09:54,09:54:39,09:54:39,20470,20470,16535,5,16540,22,16535,16535,16535,16535,2,-2,16530,27,16540,23
2016-5-24 09:55,09:55:29,09:55:29,20496,20499,16535,17,16540,25,16535,16535,16535,16535,6,-6,16535,6,16540,78
2016-5-24 09:56,09:56:56,09:56:56,20556,20565,16535,13,16540,25,16535,16535,16535,16535,9,-9,16530,11,16535,20
2016-5-24 09:57,09:57:10,09:57:42,20575,20653,16530,6,16535,29,16530,16535,16530,16535,56,36,16530,23,16535,7
2016-5-24 09:58,09:58:11,09:58:46,20677,20727,16530,29,16535,10,16535,16535,16535,16535,21,17,16535,4,16540,25
2016-5-24 09:59,09:59:30,09:59:55,20787,20844,16530,22,16535,8,16535,16540,16535,16540,49,49,16535,24,16540,7
2016-5-24 10:00,10:00:00,10:00:02,20852,20858,16535,23,16540,3,16540,16540,16540,16540,4,2,16535,22,16540,2
2016-5-24 10:01,10:01:09,10:01:55,20912,20964,16535,14,16540,20,16535,16535,16535,16535,25,-3,16535,13,16540,7
2016-5-24 10:02,10:02:00,10:02:00,0,0,0,0,0,0,16535,16535,16535,16535,0,0,0,0,0,0
2016-5-24 10:03,10:03:09,10:03:38,21000,21029,16535,5,16540,22,16535,16535,16535,16535,11,3,16535,9,16540,22
2016-5-24 10:04,10:04:23,10:04:33,21059,21095,16535,6,16540,23,16535,16535,16530,16530,27,-3,16530,6,16535,31
2016-5-24 10:05,10:05:24,10:05:24,21131,21136,16530,22,16535,21,16535,16535,16535,16535,12,12,16535,17,16540,13
2016-5-24 10:06,10:06:06,10:06:56,21168,21258,16535,20,16540,36,16535,16535,16530,16530,73,-33,16530,18,16535,29
2016-5-24 10:07,10:07:18,10:07:18,21279,21290,16530,30,16535,28,16535,16535,16535,16535,25,25,16535,12,16540,23
2016-5-24 10:08,10:08:33,10:08:48,21371,21420,16535,28,16540,16,16540,16540,16540,16540,39,23,16535,26,16540,9
2016-5-24 10:09,10:09:03,10:09:37,21435,21496,16535,33,16540,8,16540,16550,16540,16550,23,23,16545,13,16550,20
2016-5-24 10:10,10:10:00,10:10:59,21524,21601,16545,12,16550,24,16545,16545,16540,16540,42,-16,16540,8,16545,24
2016-5-24 10:11,10:11:07,10:11:07,21615,21615,16540,15,16545,16,16540,16540,16540,16540,1,-1,16540,14,16545,17
2016-5-24 10:12,10:12:01,10:12:57,21651,21716,16540,17,16545,20,16540,16540,16540,16540,55,9,16540,9,16545,25
2016-5-24 10:13,10:13:00,10:13:56,21727,21832,16540,10,16545,40,16540,16540,16535,16535,72,-14,16530,23,16540,25
2016-5-24 10:14,10:14:17,10:14:59,21862,21908,16530,26,16535,10,16535,16535,16535,16535,23,-1,16530,27,16535,10
2016-5-24 10:15,10:15:01,10:15:41,21918,22051,16530,22,16535,14,16530,16530,16525,16525,141,-5,16525,12,16530,19
2016-5-24 10:16,10:16:58,10:16:59,22105,22137,16525,22,16530,21,16530,16530,16530,16530,41,33,16530,3,16535,18
2016-5-24 10:17,10:17:21,10:17:21,22151,22152,16530,21,16535,9,16530,16530,16530,16530,2,-2,16530,10,16535,12
2016-5-24 10:18,10:18:06,10:18:53,22186,22238,16530,7,16535,20,16530,16535,16530,16535,46,34,16535,3,16540,31
2016-5-24 10:19,10:19:12,10:19:59,22255,22337,16535,24,16540,20,16540,16540,16540,16540,61,-1,16535,13,16540,4
2016-5-24 10:20,10:20:25,10:20:39,22367,22397,16535,6,16540,22,16535,16535,16535,16535,19,11,16530,17,16535,8
2016-5-24 10:21,10:21:08,10:21:08,22420,22433,16530,9,16535,19,16530,16530,16530,16530,20,-20,16530,5,16535,25
2016-5-24 10:22,10:22:01,10:22:58,22472,22557,16530,13,16535,26,16530,16540,16530,16540,58,30,16540,10,16545,12
2016-5-24 10:23,10:23:03,10:23:57,22563,22682,16540,12,16545,13,16540,16540,16540,16540,83,-20,16540,5,16545,24
2016-5-24 10:24,10:24:02,10:24:44,22688,22762,16540,7,16545,24,16540,16545,16540,16540,52,-22,16540,8,16545,27
2016-5-24 10:25,10:25:03,10:25:55,22772,22833,16540,13,16545,26,16545,16545,16540,16540,31,21,16535,22,16540,10
2016-5-24 10:26,10:26:08,10:26:54,22847,22890,16535,25,16540,11,16540,16540,16540,16540,38,2,16535,27,16545,33
2016-5-24 10:27,10:27:05,10:27:53,22902,22973,16535,24,16540,11,16540,16540,16540,16540,67,8,16540,5,16545,29
2016-5-24 10:28,10:28:01,10:28:45,22979,23031,16540,14,16545,26,16540,16540,16540,16540,34,-34,16540,7,16545,34
2016-5-24 10:29,10:29:00,10:29:58,23047,23136,16540,17,16545,33,16540,16545,16540,16545,32,6,16540,22,16545,10
2016-5-24 10:30,10:30:00,10:30:55,23138,23374,16540,22,16545,13,16545,16560,16545,16555,234,48,16555,3,16560,19
2016-5-24 10:31,10:31:06,10:31:06,23384,23385,16555,2,16560,22,16555,16555,16550,16550,3,-3,16550,16,16555,16
2016-5-24 10:32,10:32:02,10:32:58,23419,23491,16550,12,16555,20,16550,16560,16550,16560,51,41,16560,12,16565,20
2016-5-24 10:33,10:33:12,10:33:36,23507,23546,16560,13,16565,21,16565,16565,16560,16560,35,-15,16560,13,16565,22
2016-5-24 10:34,10:34:07,10:34:17,23562,23580,16560,22,16565,21,16560,16560,16560,16560,15,-15,16560,3,16565,24
2016-5-24 10:35,10:35:03,10:35:51,23589,23691,16560,7,16565,25,16560,16570,16560,16565,59,27,16565,12,16570,15
2016-5-24 10:36,10:36:01,10:36:57,23702,23795,16565,11,16570,17,16565,16575,16565,16575,93,17,16570,18,16575,36
2016-5-24 10:37,10:37:04,10:37:25,23798,23845,16570,18,16575,36,16570,16570,16565,16570,53,-19,16565,23,16570,9
2016-5-24 10:38,10:38:00,10:38:58,23866,23973,16565,20,16570,12,16565,16570,16565,16565,70,-22,16565,9,16570,19
2016-5-24 10:39,10:39:12,10:39:54,23987,24037,16565,17,16570,14,16565,16565,16565,16565,25,-9,16565,3,16570,20
2016-5-24 10:40,10:40:01,10:40:01,24049,24049,16565,10,16570,18,16565,16565,16565,16565,1,-1,16565,7,16570,19
2016-5-24 10:41,10:41:03,10:41:03,24070,24070,16565,10,16570,18,16565,16565,16565,16565,1,-1,16565,7,16570,19
2016-5-24 10:42,10:42:02,10:42:56,24105,24280,16565,19,16570,10,16570,16575,16560,16570,169,5,16565,20,16570,12
2016-5-24 10:43,10:43:01,10:43:45,24290,24392,16565,20,16570,17,16565,16570,16565,16565,95,-5,16565,15,16570,20
2016-5-24 10:44,10:44:19,10:44:41,24424,24490,16565,24,16570,7,16570,16570,16560,16560,60,22,16555,30,16565,20
2016-5-24 10:45,10:45:24,10:45:58,24510,24619,16560,19,16565,10,16565,16575,16560,16565,98,38,16560,222,16565,19
2016-5-24 10:46,10:46:05,10:46:57,24625,24720,16560,15,16565,26,16560,16565,16560,16560,52,-18,16560,4,16565,54
2016-5-24 10:47,10:47:00,10:47:50,24728,24833,16560,210,16565,42,16560,16560,16555,16555,77,-53,16555,11,16560,38
2016-5-24 10:48,10:48:01,10:48:46,24847,24949,16555,117,16560,11,16560,16560,16560,16560,78,-7,16560,3,16565,30
2016-5-24 10:49,10:49:02,10:49:57,24958,25012,16560,2,16565,30,16560,16560,16555,16555,13,-8,16555,9,16560,23
2016-5-24 10:50,10:50:29,10:50:57,25030,25127,16555,21,16560,9,16560,16560,16545,16550,135,23,16550,15,16555,66
2016-5-24 10:51,10:51:08,10:51:58,25138,25298,16550,25,16555,63,16555,16560,16545,16560,166,12,16555,99,16560,13
2016-5-24 10:52,10:52:32,10:52:55,25327,25352,16555,16,16560,40,16555,16555,16555,16555,13,-1,16550,27,16560,44
2016-5-24 10:53,10:53:12,10:53:54,25365,25397,16550,28,16555,8,16555,16555,16555,16555,7,3,16550,24,16555,13
2016-5-24 10:54,10:54:00,10:54:57,25400,25569,16550,24,16555,13,16555,16565,16555,16560,177,77,16555,39,16560,12
2016-5-24 10:55,10:55:06,10:55:53,25586,25660,16555,38,16560,6,16560,16560,16555,16555,40,4,16555,9,16560,120
2016-5-24 10:56,10:56:07,10:56:15,25681,25701,16555,34,16560,8,16560,16560,16560,16560,16,4,16555,37,16560,8
2016-5-24 10:57,10:57:26,10:57:49,25739,25803,16555,47,16560,45,16555,16555,16555,16555,56,-38,16555,11,16560,46
2016-5-24 10:58,10:58:05,10:58:43,25811,25921,16555,80,16560,44,16560,16565,16555,16555,139,-9,16550,26,16555,16
2016-5-24 10:59,10:59:01,10:59:42,25929,26001,16550,20,16555,18,16550,16555,16550,16555,73,25,16550,19,16555,11
2016-5-24 11:00,11:00:21,11:00:40,26024,26043,16550,8,16555,19,16550,16550,16550,16550,14,-14,16550,13,16555,28
2016-5-24 11:01,11:01:34,11:01:34,26057,26059,16550,30,16555,10,16555,16555,16555,16555,10,10,16555,10,16560,26
2016-5-24 11:02,11:02:53,11:02:53,26106,26113,16555,12,16560,27,16555,16555,16555,16555,13,-12,16555,6,16560,28
2016-5-24 11:03,11:03:00,11:03:00,0,0,0,0,0,0,16555,16555,16555,16555,0,0,0,0,0,0
2016-5-24 11:04,11:04:00,11:04:00,0,0,0,0,0,0,16555,16555,16555,16555,0,0,0,0,0,0
2016-5-24 11:05,11:05:00,11:05:59,26175,26300,16555,21,16560,20,16560,16570,16560,16565,105,37,16565,4,16570,20
2016-5-24 11:06,11:06:04,11:06:48,26304,26401,16565,9,16570,20,16565,16570,16565,16570,65,27,16565,21,16575,30
2016-5-24 11:07,11:07:19,11:07:58,26422,26472,16565,17,16570,18,16565,16565,16560,16565,26,-14,16560,14,16565,4
2016-5-24 11:08,11:08:02,11:08:45,26479,26592,16560,11,16565,17,16560,16565,16560,16560,67,-3,16555,22,16565,21
2016-5-24 11:09,11:09:21,11:09:47,26610,26638,16555,23,16560,3,16560,16560,16555,16560,9,-3,16555,25,16560,6
2016-5-24 11:10,11:10:43,11:10:57,26691,26712,16555,20,16560,3,16560,16565,16560,16565,13,13,16560,6,16565,19
2016-5-24 11:11,11:11:00,11:11:48,26717,26756,16560,4,16565,20,16560,16560,16560,16560,11,-7,16555,25,16560,6
2016-5-24 11:12,11:12:14,11:12:29,26769,26781,16555,24,16560,6,16560,16560,16560,16560,9,3,16560,3,16565,19
2016-5-24 11:13,11:13:05,11:13:52,26793,26897,16560,13,16565,12,16565,16565,16560,16560,78,-32,16555,21,16560,5
2016-5-24 11:14,11:14:01,11:14:31,26902,26920,16555,21,16560,5,16560,16560,16560,16560,7,3,16555,21,16560,3
2016-5-24 11:15,11:15:02,11:15:02,26936,26937,16555,22,16560,4,16560,16560,16560,16560,4,4,16560,27,16565,15
2016-5-24 11:16,11:16:26,11:16:59,26967,27006,16560,11,16565,25,16560,16560,16560,16560,43,-43,16555,21,16565,23
2016-5-24 11:17,11:17:00,11:17:00,0,0,0,0,0,0,16560,16560,16560,16560,0,0,0,0,0,0
2016-5-24 11:18,11:18:00,11:18:00,0,0,0,0,0,0,16560,16560,16560,16560,0,0,0,0,0,0
2016-5-24 11:19,11:19:16,11:19:26,27043,27058,16555,15,16560,12,16560,16560,16555,16555,4,2,16555,11,16560,17
2016-5-24 11:20,11:20:10,11:20:46,27074,27098,16550,24,16555,7,16555,16555,16555,16555,15,7,16555,3,16560,17
2016-5-24 11:21,11:21:56,11:21:56,27130,27130,16555,7,16560,21,16555,16555,16555,16555,2,-2,16555,2,16555,2
2016-5-24 11:22,11:22:21,11:22:52,27142,27197,16555,5,16560,21,16555,16560,16555,16560,30,8,16560,3,16565,22
2016-5-24 11:23,11:23:18,11:23:30,27212,27227,16560,12,16565,14,16565,16565,16560,16560,17,-15,16555,19,16560,5
2016-5-24 11:24,11:24:03,11:24:49,27251,27295,16555,14,16560,10,16560,16560,16555,16555,28,14,16555,11,16560,14
2016-5-24 11:25,11:25:12,11:25:12,27310,27310,16555,10,16560,14,16555,16555,16555,16555,1,-1,16555,11,16560,13
2016-5-24 11:26,11:26:21,11:26:56,27335,27401,16555,13,16560,11,16555,16555,16550,16550,31,-13,16545,22,16555,18
2016-5-24 11:27,11:27:05,11:27:59,27408,27607,16550,2,16555,19,16550,16550,16535,16540,146,6,16540,4,16540,7
2016-5-24 11:28,11:28:00,11:28:30,27609,27657,16540,4,16545,23,16540,16545,16540,16545,26,6,16540,29,16545,2
2016-5-24 11:29,11:29:27,11:29:58,27686,27735,16540,21,16545,13,16540,16545,16540,16545,37,-23,16540,32,16545,2
2016-5-24 11:30,11:30:00,11:30:30,27738,27834,16540,32,16545,2,16545,16545,16540,16545,87,33,16545,8,16545,3
2016-5-24 11:31,11:31:03,11:31:32,27865,27902,16545,21,16550,23,16545,16550,16545,16550,23,-13,16545,24,16550,17
2016-5-24 11:32,11:32:15,11:32:42,27912,27980,16545,28,16550,19,16545,16545,16540,16545,86,-12,16545,7,16550,22
2016-5-24 11:33,11:33:00,11:33:59,28006,28097,16545,2,16550,25,16545,16545,16545,16545,42,30,16545,13,16550,19
2016-5-24 11:34,11:34:17,11:34:51,28111,28218,16545,23,16550,18,16550,16555,16550,16550,95,17,16545,22,16550,14
2016-5-24 11:35,11:35:03,11:35:46,28228,28291,16545,21,16550,18,16545,16550,16545,16550,55,1,16545,26,16555,25
2016-5-24 11:36,11:36:06,11:36:35,28319,28359,16550,6,16555,24,16550,16550,16550,16550,21,-11,16545,26,16550,5
2016-5-24 11:37,11:37:03,11:37:43,28375,28407,16545,22,16550,10,16545,16545,16545,16545,21,-21,16545,3,16545,14
2016-5-24 11:38,11:38:01,11:38:39,28414,28470,16545,10,16550,24,16545,16545,16545,16545,27,3,16540,26,16550,24
2016-5-24 11:39,11:39:05,11:39:50,28503,28555,16540,16,16545,17,16545,16545,16545,16545,29,29,16540,43,16545,2
2016-5-24 11:40,11:40:04,11:40:55,28570,28723,16540,34,16545,26,16540,16540,16530,16540,168,-104,16535,4,16540,26
2016-5-24 11:41,11:41:11,11:41:58,28726,28877,16535,4,16540,26,16535,16535,16525,16530,147,-70,16530,5,16535,20
2016-5-24 11:42,11:42:05,11:42:54,28884,28940,16530,11,16535,20,16530,16535,16530,16535,25,17,16535,22,16540,18
2016-5-24 11:43,11:43:05,11:43:47,28946,29030,16535,19,16540,19,16540,16545,16540,16540,54,26,16535,25,16545,27
2016-5-24 11:44,11:44:15,11:44:58,29059,29124,16540,21,16545,20,16545,16545,16545,16545,39,26,16545,5,16550,23
2016-5-24 11:45,11:45:00,11:45:44,29129,29177,16545,10,16550,23,16545,16550,16545,16550,28,4,16550,7,16555,25
2016-5-24 11:46,11:46:02,11:46:30,29189,29206,16550,13,16555,25,16550,16555,16550,16555,2,0,16550,18,16555,25
2016-5-24 11:47,11:47:19,11:47:59,29223,29334,16550,19,16555,32,16550,16555,16545,16555,114,1,16550,26,16555,7
2016-5-24 11:48,11:48:06,11:48:50,29347,29431,16550,27,16555,8,16555,16555,16555,16555,44,-21,16550,25,16555,7
2016-5-24 11:49,11:49:34,11:49:55,29468,29506,16550,29,16555,10,16555,16560,16555,16560,39,13,16555,20,16560,22
2016-5-24 11:50,11:50:05,11:50:37,29518,29610,16555,25,16560,18,16560,16560,16555,16555,80,16,16555,14,16560,29
2016-5-24 11:51,11:51:04,11:51:58,29624,29680,16555,19,16560,26,16555,16560,16555,16560,23,21,16555,24,16560,13
2016-5-24 11:52,11:52:04,11:52:39,29685,29762,16555,24,16560,16,16555,16555,16555,16555,46,18,16550,31,16555,10
2016-5-24 11:53,11:53:07,11:53:41,29776,29841,16550,29,16555,23,16555,16560,16555,16560,54,41,16555,32,16560,2
2016-5-24 11:54,11:54:18,11:54:37,29873,29926,16555,30,16560,7,16560,16560,16560,16560,31,22,16555,29,16560,3
2016-5-24 11:55,11:55:01,11:55:58,29951,30018,16555,21,16560,28,16560,16560,16550,16550,53,-49,16545,35,16555,33
2016-5-24 11:56,11:56:01,11:56:59,30020,30178,16545,35,16555,34,16550,16550,16545,16550,166,5,16545,23,16550,7
2016-5-24 11:57,11:57:00,11:57:31,30183,30229,16545,24,16550,10,16550,16550,16550,16550,28,8,16545,32,16555,42
2016-5-24 11:58,11:58:12,11:58:55,30246,30337,16550,10,16555,36,16550,16550,16545,16550,74,-17,16550,11,16555,27
2016-5-24 11:59,11:59:07,11:59:57,30346,30396,16545,26,16555,32,16550,16550,16550,16550,34,-30,16550,8,16555,33
2016-5-24 12:00,12:00:05,12:00:58,30405,30470,16550,20,16555,28,16550,16550,16550,16550,32,-19,16550,12,16555,29
2016-5-24 12:01,12:01:44,12:01:45,30484,30494,16550,10,16555,31,16550,16550,16550,16550,9,3,16545,22,16555,28
2016-5-24 12:02,12:02:07,12:02:56,30511,30544,16545,22,16555,34,16555,16555,16545,16545,17,-11,16540,26,16545,7
2016-5-24 12:03,12:03:05,12:03:59,30558,30630,16540,21,16545,27,16540,16540,16535,16540,93,-55,16540,14,16545,25
2016-5-24 12:04,12:04:04,12:04:45,30639,30684,16540,22,16545,19,16540,16545,16540,16545,15,-13,16540,27,16545,13
2016-5-24 12:05,12:05:15,12:05:45,30689,30745,16540,31,16545,13,16540,16540,16540,16540,53,-35,16540,5,16545,33
2016-5-24 12:06,12:06:00,12:06:00,0,0,0,0,0,0,16540,16540,16540,16540,0,0,0,0,0,0
2016-5-24 12:07,12:07:01,12:07:01,30758,30771,16540,26,16545,31,16540,16540,16540,16540,16,-16,16540,8,16545,34
2016-5-24 12:08,12:08:26,12:08:26,30803,30806,16540,26,16545,14,16545,16545,16545,16545,8,8,16540,21,16545,7
2016-5-24 12:09,12:09:06,12:09:59,30815,30888,16540,25,16545,15,16545,16545,16540,16540,48,2,16535,28,16545,38
2016-5-24 12:10,12:10:03,12:10:50,30893,31027,16535,21,16540,15,16540,16540,16525,16535,85,-5,16530,13,16535,15
2016-5-24 12:11,12:11:04,12:11:55,31032,31085,16530,13,16535,26,16530,16530,16530,16530,30,-2,16530,9,16535,25
2016-5-24 12:12,12:12:07,12:12:07,31101,31104,16530,13,16535,21,16530,16530,16530,16530,10,-10,16525,26,16530,12
2016-5-24 12:13,12:13:05,12:13:35,31139,31214,16525,15,16530,21,16530,16530,16530,16530,62,22,16530,6,16535,27
2016-5-24 12:14,12:14:13,12:14:44,31240,31252,16530,20,16535,31,16535,16535,16530,16530,3,1,16530,24,16535,14
2016-5-24 12:15,12:15:39,12:15:52,31273,31296,16530,15,16535,32,16535,16535,16535,16535,11,11,16530,25,16535,16
2016-5-24 12:16,12:16:40,12:16:51,31327,31342,16530,13,16535,23,16530,16535,16530,16535,7,-5,16530,16,16535,26
2016-5-24 12:17,12:17:03,12:17:37,31347,31392,16530,16,16535,27,16530,16535,16530,16535,36,-34,16530,20,16535,16
2016-5-24 12:18,12:18:03,12:18:56,31408,31482,16530,12,16535,28,16530,16535,16530,16535,55,-30,16530,17,16535,21
2016-5-24 12:19,12:19:00,12:19:00,0,0,0,0,0,0,16535,16535,16535,16535,0,0,0,0,0,0
2016-5-24 12:20,12:20:19,12:20:55,31525,31534,16530,11,16535,32,16530,16535,16530,16535,5,-3,16530,7,16535,36
2016-5-24 12:21,12:21:32,12:21:34,31546,31549,16530,9,16535,37,16530,16530,16530,16530,6,-6,16530,2,16535,36
2016-5-24 12:22,12:22:25,12:22:56,31561,31575,16530,14,16535,29,16530,16535,16530,16535,6,-4,16530,8,16535,37
2016-5-24 12:23,12:23:40,12:23:58,31590,31626,16530,13,16535,33,16530,16530,16530,16530,44,16,16530,2,16535,40
2016-5-24 12:24,12:24:17,12:24:30,31637,31657,16530,3,16535,40,16530,16530,16530,16530,19,15,16525,27,16535,39
2016-5-24 12:25,12:25:02,12:25:33,31667,31701,16525,25,16530,12,16530,16530,16530,16530,29,13,16530,13,16535,34
2016-5-24 12:26,12:26:00,12:26:00,0,0,0,0,0,0,16530,16530,16530,16530,0,0,0,0,0,0
2016-5-24 12:27,12:27:47,12:27:47,31732,31744,16530,12,16535,34,16530,16530,16530,16530,16,-16,16525,24,16530,7
2016-5-24 12:28,12:28:03,12:28:40,31757,31775,16525,10,16530,26,16525,16525,16525,16525,8,-8,16525,5,16530,36
2016-5-24 12:29,12:29:01,12:29:30,31782,31821,16525,10,16530,29,16530,16530,16525,16525,42,-4,16525,7,16530,30
2016-5-24 12:30,12:30:08,12:30:50,31841,31900,16525,13,16530,28,16525,16530,16525,16530,68,38,16525,32,16530,10
2016-5-24 12:31,12:31:05,12:31:08,31915,31926,16525,31,16530,7,16530,16530,16530,16530,14,-8,16525,32,16530,16
2016-5-24 12:32,12:32:58,12:32:58,31974,31976,16525,25,16530,8,16525,16525,16525,16525,4,-4,16525,9,16530,43
2016-5-24 12:33,12:33:06,12:33:59,31981,32075,16525,12,16530,43,16525,16525,16520,16520,78,-56,16520,10,16525,38
2016-5-24 12:34,12:34:00,12:34:58,32079,32125,16520,10,16525,37,16520,16520,16520,16520,40,-40,16520,13,16525,44
2016-5-24 12:35,12:35:06,12:35:13,32137,32166,16520,23,16525,41,16525,16525,16520,16525,38,2,16520,1,16525,39
2016-5-24 12:36,12:36:00,12:36:58,32183,32223,16520,7,16525,39,16520,16520,16520,16520,13,-13,16520,9,16525,43
2016-5-24 12:37,12:37:37,12:37:37,32243,32243,16520,15,16525,39,16525,16525,16525,16525,1,1,16520,17,16525,38
2016-5-24 12:38,12:38:27,12:38:27,32266,32269,16520,23,16525,40,16520,16520,16520,16520,5,-5,16520,16,16525,43
2016-5-24 12:39,12:39:25,12:39:59,32291,32376,16520,27,16525,30,16525,16535,16525,16535,83,83,16530,28,16535,15
2016-5-24 12:40,12:40:05,12:40:27,32380,32416,16530,31,16535,23,16530,16530,16530,16530,26,-22,16525,36,16530,8
2016-5-24 12:41,12:41:11,12:41:11,32437,32437,16525,33,16530,25,16530,16530,16530,16530,1,1,16525,35,16530,24
2016-5-24 12:42,12:42:31,12:42:55,32461,32508,16525,40,16530,22,16530,16535,16530,16535,38,38,16530,49,16540,36
2016-5-24 12:43,12:43:01,12:43:19,32517,32582,16530,48,16535,3,16535,16540,16535,16535,53,-7,16530,47,16535,6
2016-5-24 12:44,12:44:06,12:44:58,32619,32687,16530,29,16535,29,16530,16530,16525,16525,41,-35,16520,32,16525,22
2016-5-24 12:45,12:45:06,12:45:53,32695,32775,16520,32,16525,21,16525,16530,16525,16530,53,47,16525,34,16530,9
2016-5-24 12:46,12:46:00,12:46:00,0,0,0,0,0,0,16530,16530,16530,16530,0,0,0,0,0,0
2016-5-24 12:47,12:47:11,12:47:55,32822,32853,16525,19,16530,28,16530,16530,16520,16520,27,-25,16520,19,16525,36
2016-5-24 12:48,12:48:05,12:48:58,32857,32921,16520,17,16525,36,16520,16525,16520,16525,47,-3,16520,26,16525,9
2016-5-24 12:49,12:49:42,12:49:52,32942,32991,16520,28,16525,9,16520,16520,16520,16520,206,-206,16515,29,16525,21
2016-5-24 12:50,12:50:01,12:50:20,33001,33030,16520,11,16525,22,16520,16520,16520,16520,72,-9,16520,2,16525,27
2016-5-24 12:51,12:51:05,12:51:05,33067,33067,16520,23,16525,28,16520,16520,16520,16520,1,-1,16520,30,16525,34
2016-5-24 12:52,12:52:16,12:52:58,33100,33147,16520,33,16525,36,16525,16525,16520,16520,44,-26,16520,21,16525,37
2016-5-24 12:53,12:53:16,12:53:22,33157,33162,16520,24,16525,36,16525,16525,16520,16520,2,0,16520,27,16525,34
2016-5-24 12:54,12:54:42,12:54:48,33216,33264,16520,34,16525,38,16520,16520,16510,16510,77,-77,16510,8,16515,36
2016-5-24 12:55,12:55:07,12:55:48,33288,33499,16510,15,16515,47,16510,16510,16495,16500,369,-270,16495,39,16505,37
2016-5-24 12:56,12:56:05,12:56:51,33514,33613,16500,19,16505,47,16500,16505,16495,16495,99,-69,16495,24,16500,45
2016-5-24 12:57,12:57:15,12:57:53,33627,33772,16495,12,16500,45,16495,16500,16490,16500,264,-106,16495,33,16500,24
2016-5-24 12:58,12:58:18,12:58:56,33803,33912,16495,25,16500,32,16495,16505,16495,16505,106,20,16505,10,16510,42
2016-5-24 12:59,12:59:21,12:59:58,33942,34012,16505,41,16510,29,16510,16510,16510,16510,99,99,16505,44,16510,12
2016-5-24 13:00,13:00:00,13:00:54,34018,34201,16505,45,16510,12,16505,16510,16505,16505,307,-93,16505,16,16510,33
2016-5-24 13:01,13:01:00,13:01:55,34210,34476,16505,29,16510,24,16510,16510,16505,16510,337,-69,16505,31,16510,9
2016-5-24 13:02,13:02:04,13:02:41,34487,34609,16505,35,16510,11,16510,16515,16510,16515,116,28,16515,2,16520,33
2016-5-24 13:03,13:03:07,13:03:48,34623,34675,16515,14,16520,28,16515,16515,16510,16515,32,10,16515,7,16520,36
2016-5-24 13:04,13:04:06,13:04:53,34699,34790,16515,9,16520,34,16520,16525,16520,16520,72,48,16515,27,16520,18
2016-5-24 13:05,13:05:01,13:05:52,34806,34884,16515,15,16520,32,16515,16515,16510,16515,40,-36,16510,21,16515,15
2016-5-24 13:06,13:06:19,13:06:55,34902,34983,16510,21,16515,5,16515,16520,16515,16520,64,62,16515,27,16520,12
2016-5-24 13:07,13:07:11,13:07:54,35002,35052,16515,31,16520,5,16520,16520,16520,16520,33,-3,16520,8,16525,34
2016-5-24 13:08,13:08:09,13:08:52,35071,35135,16520,19,16525,31,16525,16525,16520,16520,46,1,16520,8,16525,30
2016-5-24 13:09,13:09:09,13:09:17,35142,35152,16520,5,16525,30,16520,16520,16520,16520,4,-4,16520,5,16525,28
2016-5-24 13:10,13:10:17,13:10:51,35180,35224,16520,8,16525,33,16520,16520,16520,16520,29,3,16520,2,16525,33
2016-5-24 13:11,13:11:00,13:11:31,35229,35266,16520,3,16525,31,16520,16525,16520,16525,12,2,16520,16,16525,24
2016-5-24 13:12,13:12:00,13:12:00,0,0,0,0,0,0,16525,16525,16525,16525,0,0,0,0,0,0
2016-5-24 13:13,13:13:07,13:13:30,35326,35365,16520,18,16525,29,16520,16520,16520,16520,41,-41,16520,7,16525,42
2016-5-24 13:14,13:14:00,13:14:00,0,0,0,0,0,0,16520,16520,16520,16520,0,0,0,0,0,0
2016-5-24 13:15,13:15:13,13:15:51,35401,35464,16520,34,16525,37,16525,16530,16525,16530,41,41,16525,28,16530,30
2016-5-24 13:16,13:16:03,13:16:11,35475,35505,16525,27,16530,27,16525,16525,16525,16525,29,-25,16520,21,16525,41
2016-5-24 13:17,13:17:08,13:17:36,35543,35614,16520,24,16525,48,16520,16525,16515,16525,66,-23,16520,28,16525,21
2016-5-24 13:18,13:18:43,13:18:43,35676,35678,16520,21,16525,24,16520,16520,16520,16520,5,-5,16520,13,16525,26
2016-5-24 13:19,13:19:13,13:19:58,35702,35786,16520,12,16525,42,16520,16520,16520,16520,85,-11,16515,35,16525,41
2016-5-24 13:20,13:20:31,13:20:55,35819,35869,16520,30,16525,19,16525,16525,16525,16525,43,15,16520,40,16525,5
2016-5-24 13:21,13:21:55,13:21:59,35917,35936,16520,29,16525,13,16525,16530,16525,16530,30,30,16525,10,16530,31
2016-5-24 13:22,13:22:02,13:22:58,35941,36024,16525,9,16530,32,16525,16530,16525,16530,39,7,16525,55,16535,54
2016-5-24 13:23,13:23:46,13:23:59,36047,36079,16530,22,16535,39,16530,16530,16530,16530,30,-14,16530,19,16535,41
2016-5-24 13:24,13:24:35,13:24:58,36107,36166,16530,17,16535,42,16530,16530,16525,16525,83,-65,16525,9,16530,38
2016-5-24 13:25,13:25:02,13:25:17,36174,36241,16520,30,16525,5,16525,16525,16525,16525,83,-81,16520,27,16525,15
2016-5-24 13:26,13:26:07,13:26:41,36274,36333,16520,8,16525,30,16520,16520,16515,16515,29,-17,16510,20,16515,14
2016-5-24 13:27,13:27:49,13:27:49,36376,36376,16510,26,16515,22,16515,16515,16515,16515,3,3,16510,25,16515,18
2016-5-24 13:28,13:28:00,13:28:00,0,0,0,0,0,0,16515,16515,16515,16515,0,0,0,0,0,0
2016-5-24 13:29,13:29:20,13:29:57,36434,36557,16510,30,16515,15,16515,16515,16510,16515,112,-14,16510,40,16515,10
2016-5-24 13:30,13:30:13,13:30:58,36585,36636,16515,7,16520,36,16515,16515,16510,16510,31,-19,16505,26,16510,8
2016-5-24 13:31,13:31:02,13:31:02,36645,36647,16505,25,16510,7,16510,16510,16510,16510,7,7,16510,20,16515,29
2016-5-24 13:32,13:32:00,13:32:00,0,0,0,0,0,0,16510,16510,16510,16510,0,0,0,0,0,0
2016-5-24 13:33,13:33:07,13:33:56,36730,36837,16510,21,16515,34,16510,16510,16505,16505,127,-88,16505,1,16510,31
2016-5-24 13:34,13:34:00,13:34:51,36842,36918,16505,1,16510,31,16505,16510,16505,16510,56,50,16505,31,16510,4
2016-5-24 13:35,13:35:15,13:35:22,36939,36966,16505,32,16510,20,16505,16505,16505,16505,38,-38,16505,1,16510,32
2016-5-24 13:36,13:36:01,13:36:56,37010,37130,16505,10,16510,32,16510,16510,16495,16500,112,-98,16500,20,16505,27
2016-5-24 13:37,13:37:04,13:37:50,37139,37222,16500,22,16505,27,16500,16505,16500,16505,62,-24,16505,4,16510,32
2016-5-24 13:38,13:38:03,13:38:33,37235,37296,16505,17,16510,27,16505,16505,16500,16500,43,-7,16500,41,16505,15
2016-5-24 13:39,13:39:03,13:39:03,37323,37323,16500,30,16505,28,16500,16500,16500,16500,1,-1,16500,32,16505,27
2016-5-24 13:40,13:40:29,13:40:29,37353,37355,16500,42,16505,27,16500,16500,16500,16500,3,-3,16500,27,16505,37
2016-5-24 13:41,13:41:13,13:41:58,37378,37512,16500,35,16505,61,16505,16505,16495,16495,131,21,16495,33,16500,18
2016-5-24 13:42,13:42:04,13:42:56,37525,37613,16495,29,16500,26,16495,16500,16495,16500,116,-112,16495,18,16500,35
2016-5-24 13:43,13:43:04,13:43:56,37620,37713,16495,20,16500,35,16495,16495,16495,16495,72,-72,16490,49,16495,25
2016-5-24 13:44,13:44:03,13:44:59,37720,37988,16490,48,16495,25,16495,16495,16475,16480,555,-37,16475,57,16480,7
2016-5-24 13:45,13:45:01,13:45:45,37993,38178,16475,53,16480,16,16480,16490,16480,16490,164,5,16490,14,16495,52
2016-5-24 13:46,13:46:23,13:46:45,38220,38281,16490,51,16495,50,16490,16495,16490,16490,68,28,16490,32,16495,29
2016-5-24 13:47,13:47:02,13:47:57,38300,38473,16490,27,16495,41,16490,16495,16485,16485,149,43,16485,17,16490,47
2016-5-24 13:48,13:48:10,13:48:55,38485,38566,16485,39,16490,37,16490,16495,16490,16490,94,-2,16485,48,16490,12
2016-5-24 13:49,13:49:01,13:49:16,38582,38617,16485,56,16490,19,16490,16490,16485,16485,41,39,16485,54,16490,22
2016-5-24 13:50,13:50:05,13:50:59,38657,38956,16485,51,16490,34,16485,16490,16470,16470,496,-348,16470,9,16475,82
2016-5-24 13:51,13:51:00,13:51:59,38960,39296,16470,11,16475,82,16470,16490,16465,16490,601,327,16490,2,16495,52
2016-5-24 13:52,13:52:02,13:52:59,39309,39545,16490,46,16495,42,16490,16495,16485,16485,267,-157,16480,71,16490,65
2016-5-24 13:53,13:53:02,13:53:56,39551,39662,16485,7,16490,67,16490,16490,16480,16490,144,46,16485,24,16490,45
2016-5-24 13:54,13:54:08,13:54:57,39680,39853,16485,26,16490,46,16485,16490,16485,16490,231,117,16485,24,16490,38
2016-5-24 13:55,13:55:00,13:55:57,39859,40005,16485,14,16490,45,16485,16485,16480,16480,103,-67,16480,27,16485,29
2016-5-24 13:56,13:56:03,13:56:52,40017,40129,16480,63,16485,30,16480,16485,16480,16480,129,-41,16475,74,16480,19
2016-5-24 13:57,13:57:03,13:57:59,40151,40279,16475,74,16480,34,16480,16480,16475,16475,85,35,16475,54,16480,64
2016-5-24 13:58,13:58:03,13:58:59,40287,40503,16475,54,16480,55,16475,16475,16465,16465,212,-202,16465,74,16470,39
2016-5-24 13:59,13:59:00,13:59:59,40508,40898,16465,93,16470,37,16470,16490,16470,16490,764,226,16490,11,16495,85
2016-5-24 14:00,14:00:00,14:00:57,40899,41462,16485,71,16495,77,16490,16495,16480,16490,1240,-254,16490,31,16495,96
2016-5-24 14:01,14:01:03,14:01:59,41476,41759,16490,81,16495,72,16490,16495,16480,16480,491,-401,16480,90,16485,51
2016-5-24 14:02,14:02:03,14:02:57,41768,41879,16480,83,16485,36,16485,16490,16485,16485,125,85,16485,123,16490,35
2016-5-24 14:03,14:03:03,14:03:48,41887,41929,16485,106,16490,64,16485,16490,16485,16490,52,44,16485,159,16490,23
2016-5-24 14:04,14:04:09,14:04:56,41946,42126,16485,160,16490,32,16490,16495,16480,16485,392,-90,16480,164,16485,27
2016-5-24 14:05,14:05:00,14:05:59,42128,42387,16480,165,16485,27,16485,16485,16470,16475,443,-261,16470,101,16475,31
2016-5-24 14:06,14:06:01,14:06:59,42391,42562,16470,101,16475,29,16475,16475,16470,16475,279,-123,16470,58,16475,1
2016-5-24 14:07,14:07:03,14:07:55,42570,42674,16475,16,16480,58,16475,16480,16470,16470,95,-25,16470,92,16475,24
2016-5-24 14:08,14:08:00,14:08:59,42681,43023,16470,77,16475,55,16475,16490,16470,16485,772,558,16485,42,16490,166
2016-5-24 14:09,14:09:00,14:09:59,43026,43134,16485,42,16490,166,16485,16490,16480,16485,131,-23,16485,28,16490,136
