,ST,ET,sidx,eidx,bB,bBS,bA,bAS,O,H,L,C,V,OF,eB,eBS,eA,eAS
2016-06-03 08:00:00,08:00:00,08:00:58,1829,2417,16605.0,16,16610.0,10,16610.0,16630.0,16595.0,16630.0,831,134,16625,22,16630,8
2016-06-03 08:01:00,08:01:02,08:01:59,2425,2768,16625.0,29,16630.0,6,16630.0,16635.0,16610.0,16610.0,446,-10,16610,20,16615,24
2016-06-03 08:02:00,08:02:00,08:02:58,2771,3067,16610.0,20,16615.0,24,16610.0,16615.0,16590.0,16595.0,322,-4,16590,30,16600,33
2016-06-03 08:03:00,08:03:02,08:03:59,3073,3229,16595.0,8,16600.0,32,16600.0,16600.0,16585.0,16590.0,128,-9,16585,12,16590,20
2016-06-03 08:04:00,08:04:00,08:04:58,3230,3454,16585.0,18,16590.0,2,16590.0,16600.0,16580.0,16600.0,204,122,16590,19,16595,7
2016-06-03 08:05:00,08:05:05,08:05:58,3463,3778,16590.0,20,16595.0,14,16590.0,16615.0,16590.0,16615.0,248,128,16615,5,16620,64
2016-06-03 08:06:00,08:06:00,08:06:58,3785,4091,16615.0,16,16620.0,59,16620.0,16635.0,16615.0,16635.0,269,112,16635,4,16640,26
2016-06-03 08:07:00,08:07:01,08:07:59,4100,4495,16635.0,18,16640.0,16,16635.0,16660.0,16635.0,16645.0,408,168,16645,11,16650,60
2016-06-03 08:08:00,08:08:00,08:08:54,4497,4855,16645.0,11,16650.0,68,16650.0,16665.0,16645.0,16655.0,376,163,16650,21,16655,9
2016-06-03 08:09:00,08:09:01,08:09:59,4871,5267,16650.0,25,16655.0,10,16655.0,16680.0,16650.0,16665.0,494,143,16660,83,16665,5
2016-06-03 08:10:00,08:10:00,08:10:51,5268,5613,16665.0,14,16670.0,28,16665.0,16665.0,16655.0,16665.0,317,87,16660,34,16670,30
2016-06-03 08:11:00,08:11:00,08:11:51,5638,5876,16665.0,19,16670.0,16,16670.0,16675.0,16665.0,16670.0,187,69,16665,30,16670,6
2016-06-03 08:12:00,08:12:00,08:12:56,5890,6100,16665.0,30,16670.0,16,16670.0,16670.0,16655.0,16655.0,222,-134,16650,31,16655,5
2016-06-03 08:13:00,08:13:00,08:13:55,6107,6444,16650.0,28,16655.0,14,16655.0,16675.0,16655.0,16670.0,383,218,16670,17,16675,18
2016-06-03 08:14:00,08:14:03,08:14:57,6458,6759,16670.0,29,16675.0,26,16675.0,16675.0,16665.0,16670.0,387,-47,16670,5,16675,29
2016-06-03 08:15:00,08:15:00,08:15:55,6769,7185,16670.0,27,16675.0,23,16675.0,16690.0,16670.0,16685.0,597,148,16680,39,16685,16
2016-06-03 08:16:00,08:16:00,08:16:53,7197,7699,16680.0,24,16685.0,38,16685.0,16705.0,16680.0,16700.0,785,297,16695,146,16700,13
2016-06-03 08:17:00,08:17:03,08:17:58,7721,7938,16695.0,131,16700.0,20,16700.0,16700.0,16695.0,16695.0,299,-27,16695,12,16700,35
2016-06-03 08:18:00,08:18:00,08:18:59,7945,8139,16695.0,6,16700.0,40,16695.0,16700.0,16690.0,16690.0,226,-128,16690,13,16695,40
2016-06-03 08:19:00,08:19:02,08:19:59,8149,8340,16690.0,25,16695.0,64,16690.0,16690.0,16685.0,16685.0,264,-159,16685,10,16690,29
2016-06-03 08:20:00,08:20:00,08:20:55,8341,8587,16680.0,68,16685.0,21,16685.0,16685.0,16675.0,16680.0,292,-232,16675,33,16680,47
2016-06-03 08:21:00,08:21:01,08:21:59,8592,8754,16675.0,29,16680.0,51,16675.0,16680.0,16670.0,16675.0,175,-103,16675,19,16680,51
2016-06-03 08:22:00,08:22:01,08:22:51,8756,8890,16675.0,19,16680.0,53,16675.0,16685.0,16675.0,16685.0,142,16,16685,4,16690,30
2016-06-03 08:23:00,08:23:03,08:23:53,8911,8973,16685.0,13,16690.0,33,16685.0,16690.0,16685.0,16685.0,39,-9,16685,18,16690,30
2016-06-03 08:24:00,08:24:00,08:24:58,8979,9147,16685.0,13,16690.0,39,16690.0,16690.0,16685.0,16685.0,111,-59,16685,5,16690,71
2016-06-03 08:25:00,08:25:05,08:25:59,9157,9365,16685.0,17,16690.0,72,16685.0,16700.0,16685.0,16700.0,195,145,16695,30,16700,22
2016-06-03 08:26:00,08:26:03,08:26:58,9372,9658,16695.0,25,16700.0,23,16700.0,16705.0,16685.0,16695.0,279,21,16690,30,16695,8
2016-06-03 08:27:00,08:27:11,08:27:58,9683,9861,16690.0,23,16695.0,27,16695.0,16700.0,16695.0,16700.0,175,81,16695,73,16705,35
2016-06-03 08:28:00,08:28:00,08:28:48,9864,9999,16695.0,73,16705.0,35,16700.0,16700.0,16690.0,16690.0,135,-50,16685,17,16690,22
2016-06-03 08:29:00,08:29:09,08:29:59,10019,10167,16685.0,9,16690.0,27,16685.0,16685.0,16675.0,16675.0,110,-28,16675,7,16680,30
2016-06-03 08:30:00,08:30:11,08:30:57,10191,10419,16675.0,26,16680.0,19,16675.0,16680.0,16670.0,16675.0,296,-104,16670,30,16675,16
2016-06-03 08:31:00,08:31:07,08:31:59,10438,10628,16670.0,29,16675.0,7,16675.0,16675.0,16660.0,16665.0,132,-55,16665,13,16670,19
2016-06-03 08:32:00,08:32:00,08:32:48,10629,10758,16660.0,32,16665.0,5,16670.0,16670.0,16665.0,16670.0,84,-29,16665,36,16670,6
2016-06-03 08:33:00,08:33:04,08:33:58,10775,10902,16665.0,37,16670.0,10,16670.0,16675.0,16670.0,16670.0,79,-23,16670,28,16675,15
2016-06-03 08:34:00,08:34:14,08:34:40,10919,10967,16670.0,24,16675.0,19,16670.0,16675.0,16670.0,16675.0,24,16,16670,30,16675,1
2016-06-03 08:35:00,08:35:00,08:35:58,10983,11091,16670.0,30,16675.0,12,16675.0,16685.0,16675.0,16685.0,47,37,16680,52,16685,27
2016-06-03 08:36:00,08:36:00,08:36:52,11095,11569,16680.0,57,16685.0,27,16685.0,16710.0,16685.0,16690.0,607,68,16690,6,16695,30
2016-06-03 08:37:00,08:37:01,08:37:53,11590,11827,16690.0,28,16695.0,19,16695.0,16695.0,16670.0,16680.0,274,48,16675,8,16680,40
2016-06-03 08:38:00,08:38:01,08:38:56,11840,12050,16675.0,22,16680.0,37,16680.0,16680.0,16660.0,16660.0,206,-58,16655,22,16660,23
2016-06-03 08:39:00,08:39:03,08:39:59,12066,12262,16655.0,12,16660.0,31,16655.0,16660.0,16655.0,16660.0,162,-20,16660,1,16665,32
2016-06-03 08:40:00,08:40:00,08:40:57,12263,12463,16655.0,36,16660.0,4,16660.0,16660.0,16640.0,16640.0,212,-55,16640,28,16645,8
2016-06-03 08:41:00,08:41:01,08:41:36,12473,12580,16640.0,16,16645.0,23,16640.0,16645.0,16640.0,16645.0,81,-57,16640,7,16645,27
2016-06-03 08:42:00,08:42:24,08:42:50,12628,12714,16640.0,39,16645.0,34,16645.0,16655.0,16645.0,16655.0,80,58,16650,30,16655,12
2016-06-03 08:43:00,08:43:12,08:43:56,12744,12845,16650.0,28,16655.0,16,16655.0,16660.0,16655.0,16660.0,74,52,16655,37,16660,12
2016-06-03 08:44:00,08:44:00,08:44:59,12850,13038,16655.0,35,16660.0,17,16660.0,16660.0,16645.0,16655.0,152,8,16650,22,16655,15
2016-06-03 08:45:00,08:45:01,08:45:59,13044,13242,16650.0,23,16655.0,13,16655.0,16655.0,16635.0,16655.0,170,20,16655,9,16660,27
2016-06-03 08:46:00,08:46:00,08:46:49,13245,13431,16655.0,9,16660.0,27,16655.0,16660.0,16645.0,16645.0,185,-115,16645,9,16650,31
2016-06-03 08:47:00,08:47:02,08:47:59,13439,13554,16645.0,14,16650.0,29,16645.0,16645.0,16635.0,16635.0,72,26,16635,12,16640,26
2016-06-03 08:48:00,08:48:00,08:48:55,13557,13693,16635.0,12,16640.0,26,16640.0,16640.0,16630.0,16630.0,71,-13,16625,29,16630,13
2016-06-03 08:49:00,08:49:01,08:49:56,13708,13938,16625.0,15,16630.0,19,16625.0,16630.0,16615.0,16625.0,219,-11,16625,8,16630,50
2016-06-03 08:50:00,08:50:13,08:50:59,13956,14086,16625.0,22,16630.0,23,16625.0,16630.0,16625.0,16625.0,117,-41,16625,6,16630,29
2016-06-03 08:51:00,08:51:00,08:51:57,14089,14234,16625.0,6,16630.0,29,16625.0,16630.0,16620.0,16620.0,113,-33,16620,6,16625,47
2016-06-03 08:52:00,08:52:00,08:52:59,14243,14508,16620.0,19,16625.0,37,16625.0,16625.0,16605.0,16615.0,287,-103,16615,19,16620,25
2016-06-03 08:53:00,08:53:01,08:53:55,14511,14648,16615.0,19,16620.0,25,16620.0,16630.0,16620.0,16630.0,123,41,16630,13,16635,28
2016-06-03 08:54:00,08:54:22,08:54:30,14682,14730,16630.0,34,16635.0,24,16630.0,16630.0,16625.0,16625.0,33,-17,16625,13,16630,26
2016-06-03 08:55:00,08:55:03,08:55:59,14783,14957,16625.0,4,16630.0,31,16625.0,16640.0,16620.0,16640.0,112,68,16635,23,16640,22
2016-06-03 08:56:00,08:56:15,08:56:57,14972,15229,16635.0,24,16640.0,15,16640.0,16645.0,16635.0,16635.0,254,-127,16635,12,16640,38
2016-06-03 08:57:00,08:57:00,08:57:55,15237,15411,16635.0,25,16640.0,38,16640.0,16650.0,16640.0,16645.0,189,118,16640,28,16645,22
2016-06-03 08:58:00,08:58:19,08:58:46,15434,15521,16640.0,21,16645.0,27,16640.0,16645.0,16640.0,16645.0,66,-16,16645,8,16650,34
2016-06-03 08:59:00,08:59:00,08:59:46,15534,15581,16645.0,11,16650.0,29,16645.0,16650.0,16645.0,16645.0,17,1,16640,37,16645,15
2016-06-03 09:00:00,09:00:00,09:00:55,15597,15713,16640.0,32,16645.0,27,16645.0,16645.0,16630.0,16635.0,69,6,16635,9,16640,26
2016-06-03 09:01:00,09:01:06,09:01:57,15724,15834,16635.0,9,16640.0,33,16635.0,16635.0,16630.0,16635.0,91,14,16630,32,16635,12
2016-06-03 09:02:00,09:02:54,09:02:55,15882,15901,16630.0,49,16635.0,29,16635.0,16635.0,16635.0,16635.0,29,27,16635,2,16635,7
2016-06-03 09:03:00,09:03:04,09:03:05,15911,15920,16635.0,5,16640.0,27,16635.0,16635.0,16635.0,16635.0,5,3,16635,9,16640,27
2016-06-03 09:04:00,09:04:01,09:04:32,15962,15999,16635.0,14,16640.0,29,16640.0,16640.0,16635.0,16635.0,15,9,16630,46,16635,10
2016-06-03 09:05:00,09:05:07,09:05:57,16029,16102,16630.0,44,16635.0,15,16635.0,16640.0,16630.0,16635.0,42,-14,16630,30,16635,26
2016-06-03 09:06:00,09:06:02,09:06:56,16111,16236,16630.0,27,16635.0,34,16630.0,16630.0,16620.0,16620.0,113,-85,16615,25,16620,12
2016-06-03 09:07:00,09:07:00,09:07:40,16249,16353,16615.0,8,16620.0,36,16615.0,16620.0,16615.0,16620.0,70,31,16615,21,16620,19
2016-06-03 09:08:00,09:08:24,09:08:53,16374,16445,16615.0,17,16620.0,24,16620.0,16620.0,16610.0,16610.0,51,23,16605,19,16610,26
2016-06-03 09:09:00,09:09:02,09:09:56,16468,16793,16605.0,22,16610.0,25,16605.0,16605.0,16585.0,16590.0,361,-223,16590,15,16595,29
2016-06-03 09:10:00,09:10:07,09:10:23,16804,16851,16590.0,15,16595.0,28,16595.0,16605.0,16595.0,16605.0,26,26,16600,14,16605,21
2016-06-03 09:11:00,09:11:28,09:11:54,16920,17076,16600.0,27,16605.0,13,16605.0,16625.0,16605.0,16625.0,149,71,16620,25,16625,14
2016-06-03 09:12:00,09:12:08,09:12:47,17085,17218,16620.0,26,16625.0,19,16620.0,16635.0,16620.0,16630.0,133,77,16625,24,16630,13
2016-06-03 09:13:00,09:13:01,09:13:42,17234,17317,16625.0,18,16630.0,20,16630.0,16635.0,16630.0,16630.0,78,-17,16625,29,16630,10
2016-06-03 09:14:00,09:14:40,09:14:48,17361,17405,16625.0,13,16630.0,26,16630.0,16630.0,16625.0,16630.0,49,1,16630,4,16635,27
2016-06-03 09:15:00,09:15:05,09:15:58,17421,17549,16630.0,23,16635.0,30,16635.0,16635.0,16635.0,16635.0,85,9,16630,37,16640,47
2016-06-03 09:16:00,09:16:07,09:16:48,17559,17649,16635.0,2,16640.0,49,16635.0,16635.0,16630.0,16635.0,68,50,16630,31,16640,39
2016-06-03 09:17:00,09:17:00,09:17:50,17669,17840,16630.0,26,16635.0,23,16635.0,16635.0,16615.0,16615.0,121,-34,16610,30,16615,11
2016-06-03 09:18:00,09:18:00,09:18:58,17859,17911,16610.0,33,16615.0,8,16615.0,16615.0,16615.0,16615.0,20,-8,16615,18,16620,37
2016-06-03 09:19:00,09:19:04,09:19:42,17915,18035,16615.0,20,16620.0,37,16615.0,16625.0,16615.0,16625.0,95,-27,16625,1,16630,27
2016-06-03 09:20:00,09:20:12,09:20:59,18059,18118,16625.0,29,16630.0,25,16625.0,16625.0,16620.0,16625.0,38,-14,16625,14,16630,24
2016-06-03 09:21:00,09:21:34,09:21:55,18155,18289,16625.0,9,16630.0,27,16625.0,16635.0,16620.0,16635.0,142,28,16630,9,16635,18
2016-06-03 09:22:00,09:22:23,09:22:47,18316,18365,16630.0,28,16635.0,10,16635.0,16640.0,16635.0,16640.0,36,-16,16635,13,16640,32
2016-06-03 09:23:00,09:23:05,09:23:53,18393,18510,16635.0,19,16640.0,32,16635.0,16640.0,16630.0,16640.0,74,28,16635,24,16640,12
2016-06-03 09:24:00,09:24:04,09:24:49,18526,18671,16635.0,19,16640.0,21,16635.0,16650.0,16635.0,16640.0,100,31,16640,10,16645,34
2016-06-03 09:25:00,09:25:00,09:25:53,18688,18839,16640.0,28,16645.0,17,16645.0,16655.0,16645.0,16645.0,117,51,16645,13,16650,32
2016-06-03 09:26:00,09:26:12,09:26:59,18873,19012,16645.0,29,16650.0,21,16645.0,16655.0,16645.0,16655.0,30,14,16655,11,16660,31
2016-06-03 09:27:00,09:27:02,09:27:55,19018,19222,16655.0,14,16660.0,31,16660.0,16670.0,16660.0,16670.0,169,79,16665,23,16670,23
2016-06-03 09:28:00,09:28:09,09:28:49,19248,19356,16665.0,15,16670.0,18,16665.0,16670.0,16660.0,16670.0,53,-19,16670,1,16675,62
2016-06-03 09:29:00,09:29:10,09:29:43,19382,19454,16665.0,27,16670.0,17,16665.0,16670.0,16665.0,16670.0,28,-26,16665,7,16670,29
2016-06-03 09:30:00,09:30:00,09:30:58,19469,19673,16665.0,8,16670.0,31,16665.0,16670.0,16660.0,16665.0,93,-13,16660,32,16665,2
2016-06-03 09:31:00,09:31:00,09:31:59,19680,19844,16660.0,31,16665.0,8,16665.0,16670.0,16660.0,16660.0,85,11,16655,33,16665,33
2016-06-03 09:32:00,09:32:03,09:32:51,19854,20020,16655.0,29,16660.0,2,16660.0,16660.0,16645.0,16650.0,136,-14,16650,8,16655,22
2016-06-03 09:33:00,09:33:16,09:33:54,20049,20104,16650.0,25,16655.0,13,16650.0,16655.0,16650.0,16655.0,16,4,16655,9,16660,34
2016-06-03 09:34:00,09:34:05,09:34:59,20120,20209,16655.0,18,16660.0,30,16655.0,16655.0,16650.0,16650.0,25,-25,16650,19,16655,41
2016-06-03 09:35:00,09:35:02,09:35:49,20215,20300,16650.0,20,16655.0,41,16650.0,16655.0,16650.0,16655.0,43,29,16650,24,16655,26
2016-06-03 09:36:00,09:36:00,09:36:57,20315,20492,16650.0,29,16655.0,21,16655.0,16660.0,16655.0,16655.0,149,55,16650,30,16660,32
2016-06-03 09:37:00,09:37:14,09:37:59,20507,20585,16655.0,19,16660.0,25,16655.0,16660.0,16655.0,16655.0,26,1,16650,32,16655,10
2016-06-03 09:38:00,09:38:01,09:38:42,20592,20673,16650.0,30,16655.0,11,16655.0,16660.0,16655.0,16655.0,26,0,16655,6,16660,28
2016-06-03 09:39:00,09:39:02,09:39:39,20717,20816,16655.0,26,16660.0,22,16660.0,16660.0,16650.0,16650.0,62,-30,16645,30,16650,6
2016-06-03 09:40:00,09:40:14,09:40:48,20859,20939,16645.0,15,16650.0,32,16645.0,16645.0,16645.0,16645.0,51,-23,16640,31,16645,12
2016-06-03 09:41:00,09:41:00,09:41:00,0,0,0.0,0,0.0,0,16645.0,16645.0,16645.0,16645.0,0,0,0,0,0,0
2016-06-03 09:42:00,09:42:00,09:42:43,20977,21080,16640.0,18,16645.0,32,16640.0,16645.0,16635.0,16635.0,83,-29,16635,8,16640,39
2016-06-03 09:43:00,09:43:57,09:43:57,21152,21158,16635.0,9,16640.0,37,16635.0,16635.0,16635.0,16635.0,9,-9,16630,37,16640,33
2016-06-03 09:44:00,09:44:14,09:44:55,21177,21359,16630.0,20,16635.0,20,16630.0,16630.0,16625.0,16625.0,215,-107,16620,25,16625,29
2016-06-03 09:45:00,09:45:00,09:45:59,21365,21761,16620.0,25,16625.0,19,16620.0,16620.0,16605.0,16605.0,492,-227,16600,32,16610,30
2016-06-03 09:46:00,09:46:00,09:46:59,21764,22013,16605.0,1,16610.0,28,16605.0,16610.0,16600.0,16605.0,249,-97,16600,17,16605,28
2016-06-03 09:47:00,09:47:03,09:47:54,22021,22348,16600.0,18,16605.0,28,16605.0,16605.0,16580.0,16580.0,362,-182,16580,17,16585,18
2016-06-03 09:48:00,09:48:01,09:48:48,22369,22517,16580.0,15,16585.0,22,16580.0,16595.0,16580.0,16590.0,88,44,16590,5,16595,38
2016-06-03 09:49:00,09:49:12,09:49:57,22551,22722,16590.0,31,16595.0,21,16595.0,16600.0,16590.0,16595.0,104,11,16595,2,16600,67
2016-06-03 09:50:00,09:50:00,09:50:57,22725,22888,16595.0,3,16600.0,66,16595.0,16605.0,16595.0,16600.0,109,19,16600,18,16605,33
2016-06-03 09:51:00,09:51:12,09:51:52,22918,23032,16600.0,31,16605.0,22,16605.0,16615.0,16605.0,16605.0,86,6,16605,9,16610,34
2016-06-03 09:52:00,09:52:17,09:52:58,23062,23156,16605.0,21,16610.0,34,16605.0,16605.0,16590.0,16590.0,62,-53,16590,33,16595,31
2016-06-03 09:53:00,09:53:34,09:53:59,23185,23273,16590.0,31,16595.0,29,16590.0,16590.0,16585.0,16590.0,117,-107,16585,47,16595,64
2016-06-03 09:54:00,09:54:02,09:54:57,23278,23655,16590.0,10,16595.0,64,16590.0,16590.0,16570.0,16570.0,365,-84,16570,20,16575,46
2016-06-03 09:55:00,09:55:00,09:55:58,23666,23910,16570.0,27,16575.0,30,16575.0,16580.0,16565.0,16575.0,189,79,16570,34,16575,7
2016-06-03 09:56:00,09:56:02,09:56:53,23922,24171,16570.0,12,16575.0,30,16570.0,16575.0,16560.0,16575.0,210,-18,16575,1,16580,48
2016-06-03 09:57:00,09:57:02,09:57:59,24188,24331,16575.0,8,16580.0,48,16575.0,16585.0,16575.0,16580.0,123,37,16580,24,16585,18
2016-06-03 09:58:00,09:58:00,09:58:00,0,0,0.0,0,0.0,0,16580.0,16580.0,16580.0,16580.0,0,0,0,0,0,0
2016-06-03 09:59:00,09:59:25,09:59:58,24385,24472,16580.0,46,16585.0,10,16585.0,16590.0,16585.0,16585.0,36,22,16585,11,16590,30
2016-06-03 10:00:00,10:00:00,10:00:50,24476,24626,16585.0,10,16590.0,30,16585.0,16595.0,16580.0,16590.0,107,55,16590,11,16595,42
2016-06-03 10:01:00,10:01:19,10:01:28,24646,24734,16590.0,24,16595.0,31,16595.0,16605.0,16595.0,16605.0,114,44,16600,24,16605,14
2016-06-03 10:02:00,10:02:03,10:02:59,24752,24929,16600.0,32,16605.0,29,16600.0,16605.0,16595.0,16605.0,158,12,16605,2,16610,30
2016-06-03 10:03:00,10:03:01,10:03:59,24932,25112,16605.0,2,16610.0,30,16605.0,16605.0,16600.0,16600.0,76,-18,16600,27,16605,15
2016-06-03 10:04:00,10:04:03,10:04:52,25120,25243,16600.0,15,16605.0,21,16600.0,16600.0,16595.0,16600.0,69,18,16595,34,16600,1
2016-06-03 10:05:00,10:05:18,10:05:30,25272,25315,16595.0,14,16600.0,30,16595.0,16600.0,16595.0,16600.0,36,28,16600,10,16605,29
2016-06-03 10:06:00,10:06:16,10:06:50,25354,25438,16600.0,18,16605.0,66,16600.0,16605.0,16600.0,16600.0,78,22,16595,32,16600,16
2016-06-03 10:07:00,10:07:41,10:07:53,25494,25507,16595.0,11,16600.0,43,16600.0,16600.0,16595.0,16595.0,5,-3,16590,36,16595,13
2016-06-03 10:08:00,10:08:45,10:08:53,25565,25603,16590.0,8,16595.0,42,16590.0,16590.0,16585.0,16585.0,35,-17,16580,41,16590,47
2016-06-03 10:09:00,10:09:19,10:09:21,25624,25647,16580.0,29,16585.0,29,16585.0,16585.0,16585.0,16585.0,23,23,16580,34,16585,18
2016-06-03 10:10:00,10:10:03,10:10:59,25674,25958,16580.0,43,16585.0,26,16585.0,16585.0,16545.0,16550.0,317,-199,16545,27,16550,15
2016-06-03 10:11:00,10:11:00,10:11:57,25963,26144,16545.0,32,16550.0,16,16550.0,16560.0,16550.0,16560.0,154,30,16560,12,16565,36
2016-06-03 10:12:00,10:12:04,10:12:58,26157,26382,16560.0,23,16565.0,42,16560.0,16580.0,16555.0,16575.0,253,53,16575,26,16580,30
2016-06-03 10:13:00,10:13:03,10:13:40,26394,26439,16575.0,15,16580.0,39,16575.0,16580.0,16575.0,16580.0,40,14,16575,22,16580,10
2016-06-03 10:14:00,10:14:09,10:14:40,26457,26519,16575.0,19,16580.0,29,16580.0,16580.0,16575.0,16580.0,49,45,16575,23,16580,22
2016-06-03 10:15:00,10:15:01,10:15:08,26535,26576,16575.0,9,16580.0,59,16575.0,16580.0,16575.0,16580.0,50,34,16575,19,16580,33
2016-06-03 10:16:00,10:16:04,10:16:08,26608,26629,16575.0,14,16580.0,43,16580.0,16580.0,16580.0,16580.0,11,11,16575,37,16580,24
2016-06-03 10:17:00,10:17:12,10:17:59,26670,26794,16575.0,45,16580.0,21,16580.0,16580.0,16565.0,16565.0,141,15,16560,27,16565,12
2016-06-03 10:18:00,10:18:02,10:18:59,26799,26940,16560.0,30,16565.0,11,16565.0,16575.0,16565.0,16575.0,141,49,16570,21,16575,24
2016-06-03 10:19:00,10:19:09,10:19:50,26957,27043,16570.0,27,16575.0,27,16575.0,16575.0,16565.0,16565.0,69,13,16565,25,16570,27
2016-06-03 10:20:00,10:20:03,10:20:54,27056,27162,16565.0,40,16570.0,5,16570.0,16570.0,16565.0,16570.0,57,-5,16565,32,16570,11
2016-06-03 10:21:00,10:21:16,10:21:16,27181,27198,16565.0,35,16570.0,12,16570.0,16570.0,16570.0,16570.0,24,24,16565,33,16570,1
2016-06-03 10:22:00,10:22:03,10:22:46,27238,27346,16565.0,27,16570.0,9,16570.0,16570.0,16565.0,16565.0,77,19,16560,34,16565,21
2016-06-03 10:23:00,10:23:03,10:23:58,27354,27441,16560.0,34,16565.0,12,16565.0,16565.0,16560.0,16560.0,57,-17,16560,9,16565,43
2016-06-03 10:24:00,10:24:08,10:24:57,27458,27571,16560.0,14,16565.0,34,16560.0,16560.0,16555.0,16560.0,89,13,16560,10,16565,43
2016-06-03 10:25:00,10:25:04,10:25:46,27583,27759,16560.0,19,16565.0,41,16560.0,16575.0,16560.0,16575.0,153,16,16570,36,16575,26
2016-06-03 10:26:00,10:26:02,10:26:59,27788,27963,16570.0,37,16575.0,18,16570.0,16575.0,16570.0,16575.0,252,-12,16570,39,16580,71
2016-06-03 10:27:00,10:27:28,10:27:38,27990,28028,16575.0,8,16580.0,66,16575.0,16575.0,16575.0,16575.0,22,-2,16575,5,16580,69
2016-06-03 10:28:00,10:28:18,10:28:43,28057,28135,16575.0,24,16580.0,67,16580.0,16585.0,16575.0,16580.0,139,101,16580,9,16585,40
2016-06-03 10:29:00,10:29:03,10:29:59,28162,28276,16580.0,14,16585.0,36,16580.0,16580.0,16580.0,16580.0,101,-69,16580,44,16585,19
2016-06-03 10:30:00,10:30:00,10:30:52,28280,28469,16580.0,44,16585.0,14,16585.0,16590.0,16585.0,16585.0,127,11,16580,39,16585,10
2016-06-03 10:31:00,10:31:04,10:31:54,28479,28521,16585.0,8,16590.0,34,16585.0,16585.0,16585.0,16585.0,16,2,16585,8,16590,34
2016-06-03 10:32:00,10:32:06,10:32:43,28540,28587,16585.0,1,16590.0,34,16585.0,16585.0,16580.0,16580.0,9,-1,16580,31,16585,17
2016-06-03 10:33:00,10:33:03,10:33:17,28596,28628,16580.0,32,16585.0,13,16585.0,16590.0,16585.0,16590.0,27,23,16585,19,16590,19
2016-06-03 10:34:00,10:34:10,10:34:29,28678,28720,16585.0,2,16590.0,44,16585.0,16585.0,16585.0,16585.0,16,-12,16580,34,16585,3
2016-06-03 10:35:00,10:35:02,10:35:54,28744,28791,16580.0,32,16585.0,2,16580.0,16590.0,16580.0,16585.0,15,-7,16580,32,16590,40
2016-06-03 10:36:00,10:36:30,10:36:52,28816,28829,16585.0,3,16590.0,42,16585.0,16585.0,16585.0,16585.0,5,-5,16585,10,16590,41
2016-06-03 10:37:00,10:37:46,10:37:46,28859,28862,16585.0,36,16590.0,25,16590.0,16590.0,16590.0,16590.0,5,5,16585,37,16590,20
2016-06-03 10:38:00,10:38:00,10:38:00,0,0,0.0,0,0.0,0,16590.0,16590.0,16590.0,16590.0,0,0,0,0,0,0
2016-06-03 10:39:00,10:39:46,10:39:58,28894,28960,16585.0,16,16590.0,33,16585.0,16595.0,16585.0,16595.0,71,17,16590,29,16595,12
2016-06-03 10:40:00,10:40:25,10:40:57,28987,29022,16590.0,34,16595.0,12,16595.0,16595.0,16590.0,16590.0,24,-14,16585,32,16590,15
2016-06-03 10:41:00,10:41:29,10:41:29,29029,29029,16585.0,32,16590.0,21,16585.0,16585.0,16585.0,16585.0,1,-1,16585,7,16590,30
2016-06-03 10:42:00,10:42:59,10:42:59,29054,29055,16585.0,7,16590.0,31,16585.0,16585.0,16585.0,16585.0,6,-6,16580,31,16585,16
2016-06-03 10:43:00,10:43:03,10:43:22,29061,29086,16580.0,32,16585.0,21,16585.0,16585.0,16585.0,16585.0,16,14,16585,8,16590,29
2016-06-03 10:44:00,10:44:00,10:44:00,0,0,0.0,0,0.0,0,16585.0,16585.0,16585.0,16585.0,0,0,0,0,0,0
2016-06-03 10:45:00,10:45:54,10:45:59,29133,29207,16585.0,14,16590.0,28,16590.0,16595.0,16585.0,16590.0,104,-17,16590,9,16595,26
2016-06-03 10:46:00,10:46:06,10:46:56,29221,29543,16590.0,76,16595.0,57,16590.0,16605.0,16590.0,16595.0,697,106,16590,69,16600,84
2016-06-03 10:47:00,10:47:04,10:47:52,29554,29755,16590.0,78,16595.0,29,16590.0,16605.0,16590.0,16605.0,378,40,16600,36,16605,18
2016-06-03 10:48:00,10:48:08,10:48:59,29771,29856,16600.0,37,16605.0,11,16605.0,16605.0,16600.0,16600.0,36,0,16595,57,16600,10
2016-06-03 10:49:00,10:49:02,10:49:35,29864,29922,16595.0,64,16600.0,12,16600.0,16605.0,16600.0,16605.0,36,32,16600,74,16605,6
2016-06-03 10:50:00,10:50:06,10:50:54,29946,30081,16600.0,73,16605.0,4,16605.0,16610.0,16600.0,16605.0,116,-10,16600,74,16605,3
2016-06-03 10:51:00,10:51:08,10:51:52,30089,30180,16600.0,73,16605.0,35,16605.0,16605.0,16600.0,16600.0,80,4,16595,35,16600,5
2016-06-03 10:52:00,10:52:15,10:52:49,30203,30262,16595.0,11,16600.0,39,16595.0,16595.0,16590.0,16590.0,62,-60,16590,2,16595,41
2016-06-03 10:53:00,10:53:06,10:53:54,30278,30324,16590.0,2,16595.0,37,16590.0,16590.0,16590.0,16590.0,11,-1,16585,38,16595,44
2016-06-03 10:54:00,10:54:01,10:54:56,30331,30414,16590.0,3,16595.0,45,16590.0,16590.0,16585.0,16585.0,35,-19,16580,36,16585,4
2016-06-03 10:55:00,10:55:16,10:55:56,30426,30538,16580.0,35,16585.0,4,16585.0,16595.0,16585.0,16595.0,168,68,16595,17,16600,27
2016-06-03 10:56:00,10:56:27,10:56:58,30555,30620,16595.0,67,16600.0,11,16600.0,16600.0,16595.0,16600.0,54,42,16595,70,16605,35
2016-06-03 10:57:00,10:57:00,10:57:31,30623,30656,16595.0,70,16605.0,35,16600.0,16600.0,16600.0,16600.0,7,0,16595,72,16605,45
2016-06-03 10:58:00,10:58:00,10:58:58,30666,30708,16595.0,71,16600.0,5,16600.0,16600.0,16600.0,16600.0,18,8,16595,67,16600,9
2016-06-03 10:59:00,10:59:22,10:59:59,30720,30834,16595.0,69,16600.0,21,16600.0,16605.0,16600.0,16605.0,95,59,16605,9,16605,3
2016-06-03 11:00:00,11:00:16,11:00:56,30857,30900,16605.0,21,16610.0,32,16605.0,16605.0,16605.0,16605.0,6,2,16605,9,16610,38
2016-06-03 11:01:00,11:01:07,11:01:55,30916,31208,16605.0,67,16610.0,83,16610.0,16615.0,16600.0,16610.0,470,47,16605,123,16610,42
2016-06-03 11:02:00,11:02:04,11:02:59,31221,31367,16605.0,72,16610.0,384,16610.0,16615.0,16610.0,16615.0,103,21,16610,40,16615,12
2016-06-03 11:03:00,11:03:10,11:03:51,31383,31531,16610.0,34,16615.0,13,16615.0,16615.0,16605.0,16610.0,219,-67,16605,48,16615,40
2016-06-03 11:04:00,11:04:24,11:04:53,31565,31698,16610.0,210,16615.0,39,16615.0,16620.0,16615.0,16620.0,324,30,16615,80,16625,61
2016-06-03 11:05:00,11:05:10,11:05:22,31721,31760,16615.0,70,16620.0,18,16615.0,16620.0,16615.0,16620.0,32,10,16615,56,16620,6
2016-06-03 11:06:00,11:06:00,11:06:00,0,0,0.0,0,0.0,0,16620.0,16620.0,16620.0,16620.0,0,0,0,0,0,0
2016-06-03 11:07:00,11:07:35,11:07:49,31842,31872,16615.0,88,16620.0,17,16620.0,16620.0,16615.0,16615.0,27,23,16615,80,16620,35
2016-06-03 11:08:00,11:08:57,11:08:57,31913,31913,16615.0,86,16620.0,31,16615.0,16615.0,16615.0,16615.0,2,-2,16615,32,16620,36
2016-06-03 11:09:00,11:09:46,11:09:58,31936,31992,16615.0,37,16620.0,69,16615.0,16615.0,16615.0,16615.0,69,-47,16610,30,16615,23
2016-06-03 11:10:00,11:10:21,11:10:59,32005,32072,16610.0,75,16615.0,24,16610.0,16615.0,16610.0,16615.0,90,-68,16615,4,16620,76
2016-06-03 11:11:00,11:11:00,11:11:51,32073,32214,16610.0,38,16615.0,24,16615.0,16620.0,16610.0,16615.0,234,70,16610,220,16615,2
2016-06-03 11:12:00,11:12:31,11:12:31,32264,32264,16610.0,19,16615.0,22,16610.0,16610.0,16610.0,16610.0,2,-2,16610,11,16615,26
2016-06-03 11:13:00,11:13:32,11:13:33,32303,32318,16610.0,7,16615.0,34,16610.0,16610.0,16610.0,16610.0,16,-8,16605,39,16615,36
2016-06-03 11:14:00,11:14:00,11:14:00,0,0,0.0,0,0.0,0,16610.0,16610.0,16610.0,16610.0,0,0,0,0,0,0
2016-06-03 11:15:00,11:15:00,11:15:00,0,0,0.0,0,0.0,0,16610.0,16610.0,16610.0,16610.0,0,0,0,0,0,0
2016-06-03 11:16:00,11:16:00,11:16:09,32381,32397,16605.0,26,16610.0,14,16610.0,16610.0,16610.0,16610.0,3,3,16605,30,16610,13
2016-06-03 11:17:00,11:17:46,11:17:46,32415,32433,16605.0,24,16610.0,21,16605.0,16605.0,16605.0,16605.0,18,-14,16600,35,16605,9
2016-06-03 11:18:00,11:18:12,11:18:46,32468,32489,16600.0,38,16605.0,7,16605.0,16605.0,16605.0,16605.0,14,14,16605,18,16610,26
2016-06-03 11:19:00,11:19:01,11:19:53,32495,32515,16605.0,20,16610.0,18,16605.0,16605.0,16605.0,16605.0,13,-13,16600,40,16605,2
2016-06-03 11:20:00,11:20:06,11:20:45,32522,32546,16605.0,16,16610.0,23,16605.0,16605.0,16600.0,16605.0,14,-14,16600,38,16610,35
2016-06-03 11:21:00,11:21:18,11:21:18,32562,32569,16605.0,17,16610.0,27,16610.0,16610.0,16610.0,16610.0,22,22,16605,25,16610,10
2016-06-03 11:22:00,11:22:47,11:22:47,32592,32592,16605.0,24,16610.0,18,16610.0,16610.0,16610.0,16610.0,1,1,16605,25,16610,16
2016-06-03 11:23:00,11:23:00,11:23:00,0,0,0.0,0,0.0,0,16610.0,16610.0,16610.0,16610.0,0,0,0,0,0,0
2016-06-03 11:24:00,11:24:21,11:24:48,32619,32703,16605.0,25,16610.0,12,16610.0,16610.0,16605.0,16610.0,80,7,16605,31,16610,5
2016-06-03 11:25:00,11:25:02,11:25:05,32712,32727,16605.0,35,16610.0,5,16610.0,16615.0,16610.0,16615.0,11,11,16610,24,16615,8
2016-06-03 11:26:00,11:26:19,11:26:20,32747,32750,16615.0,20,16620.0,56,16615.0,16615.0,16615.0,16615.0,6,-6,16610,33,16620,57
2016-06-03 11:27:00,11:27:00,11:27:21,32773,32829,16615.0,37,16620.0,47,16620.0,16620.0,16620.0,16620.0,94,16,16620,26,16625,44
2016-06-03 11:28:00,11:28:00,11:28:59,32851,32903,16620.0,24,16625.0,34,16620.0,16625.0,16620.0,16625.0,48,-1,16620,29,16630,39
2016-06-03 11:29:00,11:29:47,11:29:55,32922,32942,16620.0,30,16625.0,12,16625.0,16625.0,16625.0,16625.0,17,5,16620,30,16630,41
2016-06-03 11:30:00,11:30:00,11:30:40,32953,33229,16620.0,29,16625.0,11,16620.0,16620.0,16600.0,16605.0,289,-62,16605,2,16610,20
2016-06-03 11:31:00,11:31:00,11:31:59,33251,33436,16605.0,18,16610.0,20,16610.0,16630.0,16610.0,16630.0,132,131,16625,37,16630,2
2016-06-03 11:32:00,11:32:03,11:32:54,33441,33526,16625.0,37,16630.0,4,16630.0,16630.0,16625.0,16630.0,28,-16,16625,28,16630,23
2016-06-03 11:33:00,11:33:06,11:33:57,33551,33628,16625.0,37,16630.0,16,16630.0,16635.0,16630.0,16635.0,60,58,16630,27,16635,2
2016-06-03 11:34:00,11:34:04,11:34:59,33641,33711,16635.0,21,16640.0,28,16640.0,16640.0,16635.0,16635.0,47,11,16630,14,16635,18
2016-06-03 11:35:00,11:35:00,11:35:25,33715,33777,16630.0,14,16635.0,19,16630.0,16630.0,16630.0,16630.0,37,-31,16625,23,16630,29
2016-06-03 11:36:00,11:36:55,11:36:58,33810,33840,16625.0,19,16630.0,33,16625.0,16625.0,16625.0,16625.0,32,-16,16625,11,16630,29
2016-06-03 11:37:00,11:37:23,11:37:50,33876,33989,16625.0,21,16630.0,28,16630.0,16630.0,16620.0,16620.0,92,-10,16615,17,16620,23
2016-06-03 11:38:00,11:38:40,11:38:58,34023,34074,16615.0,14,16620.0,36,16615.0,16615.0,16615.0,16615.0,36,-14,16610,40,16615,2
2016-06-03 11:39:00,11:39:00,11:39:49,34081,34171,16610.0,33,16615.0,17,16615.0,16615.0,16615.0,16615.0,44,-8,16610,44,16615,4
2016-06-03 11:40:00,11:40:02,11:40:58,34197,34277,16610.0,26,16615.0,21,16610.0,16615.0,16610.0,16615.0,27,3,16615,18,16620,27
2016-06-03 11:41:00,11:41:00,11:41:56,34284,34430,16615.0,19,16620.0,26,16620.0,16635.0,16620.0,16630.0,127,43,16625,26,16630,16
2016-06-03 11:42:00,11:42:01,11:42:59,34441,34523,16625.0,28,16630.0,15,16630.0,16630.0,16620.0,16620.0,59,-5,16615,38,16620,23
2016-06-03 11:43:00,11:43:05,11:43:57,34536,34762,16615.0,12,16620.0,30,16615.0,16615.0,16595.0,16595.0,173,-117,16595,8,16600,28
2016-06-03 11:44:00,11:44:02,11:44:55,34765,34881,16595.0,8,16600.0,28,16600.0,16615.0,16600.0,16610.0,70,30,16605,36,16610,9
2016-06-03 11:45:00,11:45:35,11:45:35,34931,34931,16605.0,36,16610.0,27,16610.0,16610.0,16610.0,16610.0,1,1,16605,38,16610,21
2016-06-03 11:46:00,11:46:05,11:46:56,34945,35141,16605.0,45,16610.0,15,16610.0,16610.0,16595.0,16595.0,197,-113,16590,37,16595,11
2016-06-03 11:47:00,11:47:51,11:47:54,35202,35252,16590.0,38,16595.0,65,16590.0,16590.0,16590.0,16590.0,65,-65,16585,43,16590,20
2016-06-03 11:48:00,11:48:09,11:48:47,35286,35397,16585.0,36,16590.0,50,16585.0,16595.0,16585.0,16595.0,134,98,16590,45,16600,34
2016-06-03 11:49:00,11:49:14,11:49:29,35428,35465,16595.0,20,16600.0,28,16595.0,16600.0,16590.0,16595.0,20,-2,16595,7,16600,41
2016-06-03 11:50:00,11:50:02,11:50:58,35495,35635,16595.0,26,16600.0,37,16600.0,16615.0,16600.0,16610.0,152,66,16610,32,16615,24
2016-06-03 11:51:00,11:51:20,11:51:30,35659,35716,16610.0,29,16615.0,37,16610.0,16610.0,16605.0,16610.0,63,-17,16610,12,16615,40
2016-06-03 11:52:00,11:52:51,11:52:57,35752,35783,16610.0,35,16615.0,21,16615.0,16615.0,16615.0,16615.0,30,6,16615,14,16620,34
2016-06-03 11:53:00,11:53:21,11:53:56,35804,35837,16615.0,41,16620.0,32,16620.0,16620.0,16620.0,16620.0,18,18,16615,49,16620,29
2016-06-03 11:54:00,11:54:06,11:54:48,35847,35913,16615.0,44,16620.0,37,16620.0,16625.0,16620.0,16625.0,60,60,16620,47,16630,45
2016-06-03 11:55:00,11:55:22,11:55:45,35937,36062,16620.0,52,16625.0,6,16625.0,16625.0,16615.0,16620.0,154,-130,16615,42,16620,2
2016-06-03 11:56:00,11:56:36,11:56:36,36110,36110,16620.0,46,16625.0,16,16625.0,16625.0,16625.0,16625.0,1,1,16620,53,16625,11
2016-06-03 11:57:00,11:57:29,11:57:56,36148,36207,16620.0,29,16625.0,48,16620.0,16620.0,16615.0,16615.0,48,-46,16610,37,16615,15
2016-06-03 11:58:00,11:58:00,11:58:00,0,0,0.0,0,0.0,0,16615.0,16615.0,16615.0,16615.0,0,0,0,0,0,0
2016-06-03 11:59:00,11:59:02,11:59:54,36255,36347,16610.0,30,16615.0,22,16615.0,16615.0,16610.0,16615.0,62,28,16610,28,16615,17
2016-06-03 12:00:00,12:00:22,12:00:25,36361,36370,16610.0,30,16615.0,12,16610.0,16615.0,16610.0,16615.0,7,3,16615,18,16620,26
2016-06-03 12:01:00,12:01:55,12:01:55,36452,36460,16615.0,15,16620.0,30,16615.0,16615.0,16615.0,16615.0,12,-12,16610,27,16615,11
2016-06-03 12:02:00,12:02:48,12:02:56,36496,36522,16610.0,33,16615.0,7,16615.0,16615.0,16615.0,16615.0,16,-8,16615,3,16620,35
2016-06-03 12:03:00,12:03:24,12:03:24,36553,36553,16615.0,6,16620.0,30,16615.0,16615.0,16615.0,16615.0,1,-1,16615,5,16620,26
2016-06-03 12:04:00,12:04:00,12:04:00,0,0,0.0,0,0.0,0,16615.0,16615.0,16615.0,16615.0,0,0,0,0,0,0
2016-06-03 12:05:00,12:05:00,12:05:00,0,0,0.0,0,0.0,0,16615.0,16615.0,16615.0,16615.0,0,0,0,0,0,0
2016-06-03 12:06:00,12:06:33,12:06:54,36647,36710,16615.0,29,16620.0,15,16620.0,16620.0,16620.0,16620.0,64,32,16620,16,16625,61
2016-06-03 12:07:00,12:07:57,12:07:57,36757,36757,16620.0,10,16625.0,60,16625.0,16625.0,16625.0,16625.0,1,1,16620,11,16625,59
2016-06-03 12:08:00,12:08:13,12:08:53,36773,36890,16620.0,36,16625.0,53,16625.0,16630.0,16625.0,16630.0,121,41,16625,41,16635,39
2016-06-03 12:09:00,12:09:14,12:09:55,36916,37139,16630.0,15,16635.0,28,16630.0,16640.0,16630.0,16635.0,358,-180,16630,18,16635,32
2016-06-03 12:10:00,12:10:10,12:10:55,37164,37235,16630.0,9,16635.0,42,16635.0,16635.0,16630.0,16635.0,23,13,16630,27,16635,30
2016-06-03 12:11:00,12:11:02,12:11:20,37241,37258,16630.0,29,16635.0,24,16630.0,16630.0,16630.0,16630.0,14,-12,16630,9,16635,37
2016-06-03 12:12:00,12:12:25,12:12:30,37289,37303,16630.0,29,16635.0,16,16635.0,16635.0,16635.0,16635.0,9,7,16635,19,16640,50
2016-06-03 12:13:00,12:13:28,12:13:58,37342,37637,16635.0,25,16640.0,53,16635.0,16635.0,16605.0,16605.0,354,-243,16600,30,16605,10
2016-06-03 12:14:00,12:14:01,12:14:58,37645,37940,16600.0,17,16605.0,28,16605.0,16605.0,16590.0,16600.0,300,-47,16600,4,16605,34
2016-06-03 12:15:00,12:15:00,12:15:56,37948,38232,16595.0,40,16600.0,10,16600.0,16610.0,16595.0,16605.0,396,-67,16605,19,16610,35
2016-06-03 12:16:00,12:16:22,12:16:56,38255,38359,16605.0,16,16610.0,34,16605.0,16605.0,16600.0,16605.0,71,-23,16605,5,16610,41
2016-06-03 12:17:00,12:17:05,12:17:19,38379,38413,16605.0,31,16610.0,32,16610.0,16610.0,16600.0,16600.0,19,-17,16600,47,16605,23
2016-06-03 12:18:00,12:18:46,12:18:46,38487,38500,16600.0,41,16605.0,39,16600.0,16600.0,16600.0,16600.0,25,-25,16600,12,16605,46
2016-06-03 12:19:00,12:19:17,12:19:59,38521,38721,16600.0,14,16605.0,52,16600.0,16600.0,16585.0,16585.0,132,1,16585,1,16590,34
2016-06-03 12:20:00,12:20:00,12:20:59,38726,38906,16580.0,56,16590.0,34,16585.0,16595.0,16580.0,16595.0,134,48,16595,2,16600,56
2016-06-03 12:21:00,12:21:00,12:21:00,0,0,0.0,0,0.0,0,16595.0,16595.0,16595.0,16595.0,0,0,0,0,0,0
2016-06-03 12:22:00,12:22:04,12:22:59,38968,39077,16595.0,10,16600.0,50,16595.0,16600.0,16595.0,16600.0,57,-38,16595,11,16600,46
2016-06-03 12:23:00,12:23:14,12:23:44,39088,39174,16595.0,6,16600.0,46,16595.0,16595.0,16595.0,16595.0,39,1,16595,6,16600,83
2016-06-03 12:24:00,12:24:23,12:24:23,39207,39207,16590.0,40,16600.0,41,16595.0,16595.0,16595.0,16595.0,4,0,16595,10,16600,42
2016-06-03 12:25:00,12:25:27,12:25:41,39246,39266,16595.0,2,16600.0,37,16595.0,16595.0,16595.0,16595.0,10,-4,16595,6,16600,40
2016-06-03 12:26:00,12:26:02,12:26:21,39291,39332,16595.0,19,16600.0,39,16595.0,16595.0,16590.0,16595.0,24,-8,16595,23,16600,39
2016-06-03 12:27:00,12:27:17,12:27:17,39362,39362,16595.0,18,16600.0,35,16595.0,16595.0,16595.0,16595.0,2,-2,16595,10,16600,36
2016-06-03 12:28:00,12:28:21,12:28:49,39419,39471,16595.0,28,16600.0,25,16600.0,16600.0,16600.0,16600.0,31,17,16595,30,16600,15
2016-06-03 12:29:00,12:29:01,12:29:51,39490,39683,16595.0,11,16600.0,29,16595.0,16595.0,16585.0,16585.0,136,-32,16585,14,16590,26
2016-06-03 12:30:00,12:30:06,12:30:52,39711,39840,16585.0,30,16590.0,13,16590.0,16590.0,16585.0,16590.0,101,-9,16590,11,16595,50
2016-06-03 12:31:00,12:31:00,12:31:00,0,0,0.0,0,0.0,0,16590.0,16590.0,16590.0,16590.0,0,0,0,0,0,0
2016-06-03 12:32:00,12:32:00,12:32:45,39882,40018,16590.0,34,16595.0,25,16595.0,16605.0,16595.0,16605.0,136,110,16600,31,16605,24
2016-06-03 12:33:00,12:33:05,12:33:58,40044,40107,16600.0,33,16605.0,13,16605.0,16605.0,16605.0,16605.0,29,17,16600,44,16610,38
2016-06-03 12:34:00,12:34:02,12:34:15,40114,40130,16600.0,44,16605.0,2,16605.0,16605.0,16600.0,16600.0,7,-3,16600,36,16605,26
2016-06-03 12:35:00,12:35:03,12:35:44,40144,40179,16600.0,29,16605.0,35,16600.0,16605.0,16600.0,16600.0,15,-13,16595,46,16600,10
2016-06-03 12:36:00,12:36:01,12:36:53,40195,40279,16595.0,26,16600.0,50,16595.0,16595.0,16590.0,16590.0,79,-71,16590,9,16595,49
2016-06-03 12:37:00,12:37:06,12:37:06,40292,40296,16590.0,32,16595.0,40,16595.0,16595.0,16595.0,16595.0,24,24,16595,22,16600,35
2016-06-03 12:38:00,12:38:06,12:38:11,40337,40342,16595.0,16,16600.0,41,16595.0,16600.0,16595.0,16595.0,3,-1,16595,14,16600,37
2016-06-03 12:39:00,12:39:10,12:39:10,40398,40398,16595.0,30,16600.0,33,16600.0,16600.0,16600.0,16600.0,1,1,16595,33,16600,32
2016-06-03 12:40:00,12:40:00,12:40:00,0,0,0.0,0,0.0,0,16600.0,16600.0,16600.0,16600.0,0,0,0,0,0,0
2016-06-03 12:41:00,12:41:15,12:41:57,40466,40528,16595.0,25,16600.0,44,16595.0,16595.0,16595.0,16595.0,55,-23,16590,43,16600,43
2016-06-03 12:42:00,12:42:15,12:42:53,40557,40648,16590.0,25,16595.0,28,16595.0,16595.0,16595.0,16595.0,52,30,16590,39,16595,18
2016-06-03 12:43:00,12:43:00,12:43:00,0,0,0.0,0,0.0,0,16595.0,16595.0,16595.0,16595.0,0,0,0,0,0,0
2016-06-03 12:44:00,12:44:00,12:44:00,0,0,0.0,0,0.0,0,16595.0,16595.0,16595.0,16595.0,0,0,0,0,0,0
2016-06-03 12:45:00,12:45:26,12:45:58,40744,40851,16590.0,8,16595.0,27,16590.0,16590.0,16585.0,16585.0,78,-18,16580,29,16585,19
2016-06-03 12:46:00,12:46:04,12:46:58,40862,41009,16580.0,29,16585.0,20,16580.0,16590.0,16575.0,16590.0,115,31,16585,23,16590,8
2016-06-03 12:47:00,12:47:43,12:47:51,41042,41061,16585.0,4,16590.0,33,16585.0,16585.0,16585.0,16585.0,11,-5,16580,39,16590,36
2016-06-03 12:48:00,12:48:15,12:48:57,41085,41172,16585.0,23,16590.0,29,16585.0,16585.0,16580.0,16580.0,53,-43,16580,9,16585,42
2016-06-03 12:49:00,12:49:12,12:49:46,41186,41301,16580.0,30,16585.0,12,16585.0,16585.0,16580.0,16580.0,114,-67,16575,47,16580,6
2016-06-03 12:50:00,12:50:33,12:50:53,41335,41452,16575.0,24,16580.0,44,16575.0,16575.0,16565.0,16570.0,154,-118,16570,15,16575,45
2016-06-03 12:51:00,12:51:05,12:51:51,41474,41703,16570.0,38,16575.0,20,16570.0,16570.0,16560.0,16570.0,208,-24,16570,7,16575,43
2016-06-03 12:52:00,12:52:03,12:52:57,41714,41795,16570.0,18,16575.0,39,16570.0,16575.0,16570.0,16575.0,48,-2,16575,15,16580,25
2016-06-03 12:53:00,12:53:06,12:53:50,41812,41880,16575.0,6,16580.0,35,16575.0,16580.0,16575.0,16580.0,53,23,16575,47,16585,51
2016-06-03 12:54:00,12:54:17,12:54:44,41909,41959,16575.0,29,16580.0,33,16575.0,16575.0,16575.0,16575.0,41,-41,16575,14,16580,34
2016-06-03 12:55:00,12:55:17,12:55:50,41983,42059,16575.0,26,16580.0,24,16575.0,16580.0,16575.0,16580.0,56,-26,16575,39,16585,42
2016-06-03 12:56:00,12:56:01,12:56:20,42077,42121,16580.0,25,16585.0,31,16585.0,16585.0,16585.0,16585.0,50,46,16585,13,16590,46
2016-06-03 12:57:00,12:57:33,12:57:59,42172,42193,16585.0,23,16590.0,38,16585.0,16585.0,16585.0,16585.0,8,-6,16585,9,16590,42
2016-06-03 12:58:00,12:58:13,12:58:26,42204,42215,16585.0,9,16590.0,42,16585.0,16585.0,16585.0,16585.0,2,-2,16585,13,16590,31
2016-06-03 12:59:00,12:59:16,12:59:46,42241,42303,16585.0,19,16590.0,45,16585.0,16585.0,16580.0,16580.0,33,-21,16575,32,16580,4
2016-06-03 13:00:00,13:00:00,13:00:26,42320,42389,16575.0,14,16580.0,19,16580.0,16585.0,16575.0,16580.0,38,16,16575,37,16580,2
2016-06-03 13:01:00,13:01:30,13:01:45,42468,42507,16575.0,31,16580.0,10,16580.0,16585.0,16580.0,16585.0,30,2,16585,8,16590,51
2016-06-03 13:02:00,13:02:19,13:02:55,42526,42679,16585.0,37,16590.0,47,16585.0,16590.0,16580.0,16590.0,240,-24,16585,31,16590,23
2016-06-03 13:03:00,13:03:01,13:03:01,42688,42698,16585.0,16,16590.0,38,16585.0,16585.0,16585.0,16585.0,19,-19,16585,9,16590,46
2016-06-03 13:04:00,13:04:16,13:04:54,42747,42818,16585.0,20,16590.0,39,16590.0,16595.0,16590.0,16595.0,70,28,16595,12,16600,43
2016-06-03 13:05:00,13:05:17,13:05:56,42832,43043,16595.0,19,16600.0,46,16595.0,16610.0,16595.0,16610.0,224,90,16605,43,16610,10
2016-06-03 13:06:00,13:06:04,13:06:58,43053,43132,16605.0,43,16610.0,15,16610.0,16610.0,16605.0,16610.0,52,5,16610,5,16615,51
2016-06-03 13:07:00,13:07:13,13:07:51,43151,43243,16610.0,18,16615.0,28,16610.0,16610.0,16605.0,16605.0,61,-27,16605,12,16610,35
2016-06-03 13:08:00,13:08:02,13:08:57,43258,43333,16605.0,18,16610.0,32,16605.0,16610.0,16605.0,16605.0,39,-15,16605,27,16610,27
2016-06-03 13:09:00,13:09:19,13:09:37,43355,43407,16605.0,21,16610.0,34,16605.0,16615.0,16605.0,16615.0,42,38,16610,40,16620,40
2016-06-03 13:10:00,13:10:01,13:10:57,43433,43578,16615.0,11,16620.0,44,16615.0,16620.0,16615.0,16620.0,114,12,16615,41,16620,13
2016-06-03 13:11:00,13:11:08,13:11:46,43587,43669,16615.0,23,16620.0,29,16615.0,16615.0,16615.0,16615.0,43,-35,16615,4,16620,34
2016-06-03 13:12:00,13:12:03,13:12:18,43695,43739,16615.0,5,16620.0,30,16615.0,16615.0,16615.0,16615.0,25,-5,16615,7,16620,33
2016-06-03 13:13:00,13:13:00,13:13:57,43766,43877,16615.0,35,16620.0,25,16620.0,16620.0,16615.0,16615.0,84,-16,16615,18,16620,35
2016-06-03 13:14:00,13:14:09,13:14:45,43890,43955,16615.0,18,16620.0,30,16615.0,16615.0,16610.0,16615.0,40,-14,16610,36,16615,2
2016-06-03 13:15:00,13:15:07,13:15:59,43972,44111,16615.0,31,16620.0,16,16620.0,16620.0,16610.0,16610.0,133,8,16605,62,16615,47
2016-06-03 13:16:00,13:16:00,13:16:00,0,0,0.0,0,0.0,0,16610.0,16610.0,16610.0,16610.0,0,0,0,0,0,0
2016-06-03 13:17:00,13:17:25,13:17:48,44162,44183,16605.0,36,16610.0,38,16605.0,16610.0,16605.0,16610.0,8,0,16605,41,16610,29
2016-06-03 13:18:00,13:18:29,13:18:45,44200,44205,16605.0,42,16610.0,31,16605.0,16605.0,16605.0,16605.0,3,-3,16605,35,16610,32
2016-06-03 13:19:00,13:19:12,13:19:59,44216,44277,16605.0,35,16610.0,34,16610.0,16610.0,16605.0,16610.0,53,9,16605,48,16610,10
2016-06-03 13:20:00,13:20:17,13:20:47,44296,44350,16605.0,26,16610.0,33,16605.0,16605.0,16600.0,16605.0,49,-11,16605,25,16610,24
2016-06-03 13:21:00,13:21:07,13:21:33,44368,44493,16605.0,28,16610.0,28,16605.0,16605.0,16595.0,16600.0,131,-51,16600,3,16605,38
2016-06-03 13:22:00,13:22:08,13:22:52,44539,44779,16600.0,27,16605.0,80,16605.0,16615.0,16600.0,16605.0,322,86,16605,12,16610,157
2016-06-03 13:23:00,13:23:09,13:23:53,44810,44939,16605.0,47,16610.0,33,16605.0,16610.0,16605.0,16610.0,95,1,16605,26,16610,22
2016-06-03 13:24:00,13:24:15,13:24:53,44952,45197,16605.0,28,16610.0,18,16605.0,16615.0,16595.0,16600.0,273,50,16595,249,16600,4
2016-06-03 13:25:00,13:25:08,13:25:59,45218,45355,16595.0,34,16600.0,45,16595.0,16610.0,16595.0,16605.0,165,21,16605,9,16610,39
2016-06-03 13:26:00,13:26:08,13:26:59,45371,45611,16605.0,214,16610.0,33,16610.0,16610.0,16595.0,16600.0,445,-195,16595,250,16600,39
2016-06-03 13:27:00,13:27:16,13:27:55,45639,45771,16595.0,37,16600.0,60,16595.0,16595.0,16590.0,16595.0,196,-168,16590,140,16595,6
2016-06-03 13:28:00,13:28:03,13:28:57,45787,45876,16590.0,41,16595.0,24,16595.0,16595.0,16590.0,16590.0,64,-44,16590,8,16595,66
2016-06-03 13:29:00,13:29:05,13:29:28,45887,45957,16590.0,29,16595.0,53,16590.0,16600.0,16590.0,16600.0,112,28,16600,36,16605,49
2016-06-03 13:30:00,13:30:00,13:30:59,45991,46051,16600.0,25,16605.0,33,16600.0,16605.0,16600.0,16605.0,20,-18,16600,54,16605,14
2016-06-03 13:31:00,13:31:05,13:31:53,46059,46203,16600.0,53,16605.0,26,16605.0,16610.0,16605.0,16610.0,90,-3,16605,50,16615,60
2016-06-03 13:32:00,13:32:02,13:32:50,46229,46375,16605.0,19,16610.0,37,16605.0,16620.0,16605.0,16620.0,113,93,16615,40,16620,5
2016-06-03 13:33:00,13:33:00,13:33:48,46384,46519,16615.0,43,16620.0,12,16620.0,16625.0,16620.0,16620.0,97,-7,16620,9,16625,70
2016-06-03 13:34:00,13:34:15,13:34:48,46546,46678,16620.0,11,16625.0,71,16620.0,16630.0,16620.0,16625.0,184,150,16625,5,16630,44
2016-06-03 13:35:00,13:35:06,13:35:58,46706,46936,16625.0,23,16630.0,36,16630.0,16640.0,16625.0,16630.0,265,91,16630,5,16635,235
2016-06-03 13:36:00,13:36:04,13:36:57,46954,47151,16630.0,28,16635.0,23,16635.0,16635.0,16630.0,16635.0,185,91,16630,222,16635,26
2016-06-03 13:37:00,13:37:10,13:37:32,47177,47237,16630.0,12,16635.0,95,16630.0,16630.0,16625.0,16625.0,58,-8,16625,12,16630,34
2016-06-03 13:38:00,13:38:24,13:38:49,47279,47318,16625.0,35,16630.0,39,16625.0,16630.0,16625.0,16630.0,17,-3,16625,30,16630,46
2016-06-03 13:39:00,13:39:03,13:39:54,47333,47494,16625.0,38,16630.0,50,16625.0,16625.0,16620.0,16625.0,156,-94,16625,19,16630,20
2016-06-03 13:40:00,13:40:09,13:40:48,47520,47613,16625.0,236,16630.0,62,16630.0,16630.0,16615.0,16615.0,96,-73,16615,38,16625,50
2016-06-03 13:41:00,13:41:17,13:41:53,47659,47713,16615.0,17,16620.0,41,16615.0,16620.0,16615.0,16615.0,37,-31,16610,57,16620,35
2016-06-03 13:42:00,13:42:08,13:42:52,47733,47811,16615.0,38,16620.0,33,16620.0,16620.0,16615.0,16620.0,55,25,16615,46,16625,35
2016-06-03 13:43:00,13:43:04,13:43:52,47822,47947,16620.0,4,16625.0,37,16620.0,16630.0,16620.0,16630.0,123,86,16630,1,16635,32
2016-06-03 13:44:00,13:44:08,13:44:53,47974,48101,16630.0,25,16635.0,29,16635.0,16635.0,16630.0,16635.0,106,40,16630,45,16635,13
2016-06-03 13:45:00,13:45:02,13:45:58,48124,48244,16630.0,42,16635.0,36,16630.0,16635.0,16625.0,16625.0,66,-10,16625,25,16630,47
2016-06-03 13:46:00,13:46:07,13:46:54,48258,48333,16625.0,37,16630.0,40,16630.0,16630.0,16620.0,16620.0,49,-41,16620,14,16625,45
2016-06-03 13:47:00,13:47:02,13:47:52,48341,48463,16620.0,18,16625.0,52,16620.0,16625.0,16610.0,16610.0,66,-56,16610,36,16615,31
2016-06-03 13:48:00,13:48:06,13:48:55,48475,48556,16610.0,54,16615.0,28,16615.0,16620.0,16610.0,16610.0,74,-14,16610,22,16615,52
2016-06-03 13:49:00,13:49:02,13:49:56,48564,48707,16610.0,28,16615.0,44,16610.0,16615.0,16600.0,16605.0,119,-27,16605,11,16610,35
2016-06-03 13:50:00,13:50:06,13:50:57,48722,48837,16605.0,26,16610.0,39,16605.0,16610.0,16605.0,16605.0,105,-89,16605,21,16610,36
2016-06-03 13:51:00,13:51:23,13:51:53,48868,48977,16605.0,28,16610.0,39,16605.0,16620.0,16605.0,16620.0,83,7,16615,19,16620,40
2016-06-03 13:52:00,13:52:04,13:52:48,48986,49077,16615.0,11,16620.0,46,16615.0,16615.0,16610.0,16615.0,75,-7,16615,15,16620,31
2016-06-03 13:53:00,13:53:00,13:53:42,49108,49260,16615.0,43,16620.0,21,16615.0,16615.0,16610.0,16615.0,139,-79,16615,1,16620,34
2016-06-03 13:54:00,13:54:06,13:54:53,49291,49344,16615.0,12,16620.0,38,16615.0,16620.0,16615.0,16615.0,30,-26,16615,11,16620,37
2016-06-03 13:55:00,13:55:00,13:55:54,49350,49509,16615.0,6,16620.0,37,16615.0,16625.0,16610.0,16625.0,133,-27,16620,9,16625,40
2016-06-03 13:56:00,13:56:05,13:56:56,49528,49704,16620.0,8,16625.0,40,16620.0,16625.0,16615.0,16625.0,138,22,16620,21,16625,44
2016-06-03 13:57:00,13:57:05,13:57:56,49718,49873,16620.0,47,16625.0,42,16620.0,16625.0,16620.0,16625.0,126,-14,16620,29,16625,23
2016-06-03 13:58:00,13:58:01,13:58:59,49881,50079,16620.0,29,16625.0,27,16620.0,16630.0,16620.0,16625.0,156,128,16625,16,16630,51
2016-06-03 13:59:00,13:59:07,13:59:59,50098,50330,16625.0,52,16630.0,57,16630.0,16635.0,16630.0,16635.0,198,85,16635,3,16635,5
2016-06-03 14:00:00,14:00:00,14:00:59,50332,50833,16635.0,3,16640.0,67,16635.0,16640.0,16625.0,16640.0,923,101,16635,73,16645,77
2016-06-03 14:01:00,14:01:03,14:01:58,50848,51049,16640.0,45,16645.0,64,16640.0,16645.0,16635.0,16640.0,231,-119,16635,76,16640,95
2016-06-03 14:02:00,14:02:00,14:02:59,51054,51300,16635.0,75,16640.0,98,16635.0,16635.0,16630.0,16635.0,521,-381,16630,102,16635,72
2016-06-03 14:03:00,14:03:05,14:03:59,51310,51521,16630.0,120,16635.0,75,16635.0,16635.0,16625.0,16625.0,413,-304,16625,36,16630,95
2016-06-03 14:04:00,14:04:00,14:04:57,51524,51630,16625.0,44,16630.0,100,16625.0,16630.0,16625.0,16625.0,82,16,16625,106,16630,128
2016-06-03 14:05:00,14:05:00,14:05:58,51636,51778,16625.0,97,16630.0,129,16625.0,16635.0,16625.0,16635.0,133,53,16630,28,16635,118
2016-06-03 14:06:00,14:06:03,14:06:58,51782,51983,16630.0,28,16635.0,143,16630.0,16645.0,16625.0,16645.0,262,185,16640,80,16645,171
2016-06-03 14:07:00,14:07:03,14:07:59,51993,52264,16640.0,88,16645.0,170,16645.0,16660.0,16645.0,16655.0,492,288,16650,10,16655,32
2016-06-03 14:08:00,14:08:04,14:08:58,52271,52545,16650.0,82,16655.0,48,16650.0,16665.0,16645.0,16660.0,538,112,16655,78,16660,126
2016-06-03 14:09:00,14:09:00,14:09:59,52551,52769,16655.0,74,16660.0,130,16655.0,16660.0,16650.0,16655.0,360,-40,16650,39,16655,6
