,ST,ET,sidx,eidx,bB,bBS,bA,bAS,O,H,L,C,V,OF,eB,eBS,eA,eAS
2016-11-07 08:00:00,08:00:00,08:00:53,6029,6417,17160.0,11,17165.0,57,17160.0,17170.0,17150.0,17160.0,493,53,17155,19,17160,31
2016-11-07 08:01:00,08:01:02,08:01:56,6427,6677,17155.0,33,17160.0,33,17155.0,17170.0,17155.0,17170.0,251,101,17165,46,17170,34
2016-11-07 08:02:00,08:02:00,08:02:59,6683,6993,17165.0,45,17170.0,34,17170.0,17175.0,17165.0,17170.0,366,-24,17170,22,17175,32
2016-11-07 08:03:00,08:03:00,08:03:56,6994,7265,17165.0,35,17170.0,31,17170.0,17185.0,17170.0,17185.0,264,139,17180,46,17185,11
2016-11-07 08:04:00,08:04:00,08:04:53,7276,7557,17180.0,44,17185.0,7,17185.0,17190.0,17175.0,17180.0,292,-9,17175,15,17180,35
2016-11-07 08:05:00,08:05:00,08:05:58,7568,7821,17175.0,31,17180.0,28,17180.0,17185.0,17175.0,17175.0,246,-94,17175,25,17180,64
2016-11-07 08:06:00,08:06:03,08:06:58,7834,8170,17175.0,43,17180.0,62,17180.0,17180.0,17170.0,17180.0,387,-228,17175,146,17180,40
2016-11-07 08:07:00,08:07:01,08:07:42,8179,8426,17175.0,169,17180.0,35,17175.0,17185.0,17175.0,17180.0,293,-11,17180,64,17185,48
2016-11-07 08:08:00,08:08:02,08:08:56,8448,8668,17180.0,192,17185.0,34,17185.0,17190.0,17185.0,17185.0,249,-4,17180,195,17185,4
2016-11-07 08:09:00,08:09:01,08:09:58,8678,8798,17180.0,223,17185.0,17,17180.0,17185.0,17180.0,17180.0,77,-3,17180,204,17185,64
2016-11-07 08:10:00,08:10:16,08:10:58,8829,8948,17180.0,222,17185.0,63,17180.0,17185.0,17180.0,17185.0,251,-245,17180,63,17185,57
2016-11-07 08:11:00,08:11:01,08:11:55,8957,9149,17180.0,215,17185.0,58,17185.0,17185.0,17180.0,17185.0,339,-87,17180,65,17185,38
2016-11-07 08:12:00,08:12:02,08:12:54,9163,9504,17180.0,55,17185.0,65,17185.0,17185.0,17180.0,17180.0,501,-45,17180,6,17185,67
2016-11-07 08:13:00,08:13:03,08:13:54,9519,9684,17180.0,15,17185.0,70,17185.0,17185.0,17180.0,17180.0,205,-25,17175,90,17180,1
2016-11-07 08:14:00,08:14:01,08:14:59,9704,9923,17175.0,85,17180.0,77,17175.0,17180.0,17170.0,17170.0,237,-171,17170,15,17175,60
2016-11-07 08:15:00,08:15:00,08:15:58,9926,10180,17170.0,15,17175.0,60,17170.0,17175.0,17160.0,17160.0,281,-181,17160,43,17165,64
2016-11-07 08:16:00,08:16:09,08:16:57,10208,10481,17160.0,64,17165.0,62,17165.0,17170.0,17160.0,17165.0,361,27,17160,70,17165,31
2016-11-07 08:17:00,08:17:01,08:17:53,10493,10704,17160.0,44,17165.0,50,17160.0,17160.0,17145.0,17145.0,242,-120,17140,53,17145,22
2016-11-07 08:18:00,08:18:03,08:18:56,10722,10956,17140.0,51,17145.0,32,17145.0,17145.0,17140.0,17140.0,207,-47,17140,34,17145,63
2016-11-07 08:19:00,08:19:03,08:19:47,10973,11137,17140.0,20,17145.0,70,17140.0,17145.0,17140.0,17140.0,179,31,17140,34,17145,51
2016-11-07 08:20:00,08:20:00,08:20:57,11157,11388,17140.0,61,17145.0,53,17145.0,17145.0,17130.0,17140.0,233,-39,17135,28,17140,37
2016-11-07 08:21:00,08:21:00,08:21:57,11392,11750,17135.0,28,17140.0,39,17135.0,17135.0,17115.0,17130.0,498,-202,17125,52,17130,26
2016-11-07 08:22:00,08:22:01,08:22:57,11759,12052,17125.0,59,17130.0,31,17130.0,17130.0,17110.0,17110.0,209,-55,17110,11,17115,54
2016-11-07 08:23:00,08:23:03,08:23:58,12074,12334,17110.0,45,17115.0,32,17115.0,17115.0,17100.0,17100.0,314,-214,17100,18,17105,76
2016-11-07 08:24:00,08:24:00,08:24:56,12340,12553,17100.0,22,17105.0,74,17100.0,17100.0,17090.0,17090.0,207,-103,17085,40,17090,6
2016-11-07 08:25:00,08:25:04,08:25:59,12569,12967,17085.0,34,17090.0,39,17090.0,17095.0,17070.0,17090.0,575,-149,17090,4,17095,58
2016-11-07 08:26:00,08:26:03,08:26:57,12979,13267,17090.0,26,17095.0,50,17095.0,17105.0,17095.0,17105.0,365,25,17105,21,17110,42
2016-11-07 08:27:00,08:27:03,08:27:41,13282,13488,17105.0,34,17110.0,43,17110.0,17110.0,17105.0,17110.0,269,21,17110,17,17115,42
2016-11-07 08:28:00,08:28:00,08:28:50,13523,13690,17110.0,42,17115.0,32,17115.0,17115.0,17110.0,17110.0,241,37,17105,52,17110,24
2016-11-07 08:29:00,08:29:19,08:29:50,13733,13821,17105.0,70,17110.0,28,17110.0,17115.0,17110.0,17110.0,93,-27,17105,52,17110,63
2016-11-07 08:30:00,08:30:01,08:30:58,13845,14046,17105.0,41,17110.0,71,17105.0,17105.0,17105.0,17105.0,217,-11,17105,6,17110,69
2016-11-07 08:31:00,08:31:05,08:31:33,14059,14164,17105.0,18,17110.0,68,17105.0,17105.0,17095.0,17095.0,151,-69,17090,48,17095,2
2016-11-07 08:32:00,08:32:16,08:32:59,14224,14539,17095.0,56,17100.0,93,17100.0,17100.0,17090.0,17090.0,446,-164,17090,29,17095,53
2016-11-07 08:33:00,08:33:07,08:33:56,14555,14707,17090.0,30,17095.0,56,17090.0,17090.0,17090.0,17090.0,132,-11,17085,37,17090,10
2016-11-07 08:34:00,08:34:03,08:34:54,14722,14828,17085.0,34,17090.0,27,17090.0,17090.0,17080.0,17080.0,63,-9,17080,37,17085,36
2016-11-07 08:35:00,08:35:06,08:35:54,14849,15035,17080.0,67,17085.0,26,17085.0,17100.0,17075.0,17100.0,168,76,17095,58,17100,17
2016-11-07 08:36:00,08:36:00,08:36:52,15049,15226,17095.0,60,17100.0,14,17100.0,17100.0,17095.0,17100.0,147,-21,17095,54,17100,45
2016-11-07 08:37:00,08:37:46,08:37:52,15291,15332,17095.0,26,17100.0,97,17095.0,17100.0,17095.0,17100.0,81,61,17095,53,17100,45
2016-11-07 08:38:00,08:38:06,08:38:59,15349,15405,17095.0,49,17100.0,64,17100.0,17100.0,17095.0,17095.0,6,-4,17095,11,17100,88
2016-11-07 08:39:00,08:39:00,08:39:45,15410,15526,17095.0,12,17100.0,91,17095.0,17095.0,17080.0,17085.0,116,-2,17080,48,17085,26
2016-11-07 08:40:00,08:40:03,08:40:55,15560,15757,17080.0,39,17085.0,66,17085.0,17085.0,17070.0,17080.0,201,-87,17075,26,17080,74
2016-11-07 08:41:00,08:41:17,08:41:54,15778,15890,17075.0,39,17080.0,89,17075.0,17075.0,17070.0,17075.0,174,70,17070,43,17075,53
2016-11-07 08:42:00,08:42:02,08:42:58,15896,16103,17070.0,45,17075.0,56,17075.0,17080.0,17070.0,17075.0,285,47,17075,38,17080,39
2016-11-07 08:43:00,08:43:00,08:43:57,16110,16311,17075.0,44,17080.0,40,17080.0,17090.0,17080.0,17090.0,184,56,17090,49,17095,41
2016-11-07 08:44:00,08:44:00,08:44:44,16317,16447,17090.0,49,17095.0,43,17090.0,17095.0,17090.0,17095.0,103,23,17090,43,17095,6
2016-11-07 08:45:00,08:45:00,08:45:37,16473,16688,17090.0,39,17095.0,46,17090.0,17095.0,17090.0,17095.0,272,118,17090,40,17095,11
2016-11-07 08:46:00,08:46:10,08:46:58,16733,16902,17090.0,25,17095.0,59,17090.0,17095.0,17085.0,17085.0,160,-61,17080,55,17085,18
2016-11-07 08:47:00,08:47:03,08:47:59,16915,17038,17080.0,57,17085.0,21,17085.0,17090.0,17085.0,17090.0,89,-25,17085,44,17090,23
2016-11-07 08:48:00,08:48:07,08:48:16,17050,17091,17085.0,45,17090.0,32,17090.0,17090.0,17085.0,17085.0,35,-29,17085,9,17090,47
2016-11-07 08:49:00,08:49:01,08:49:54,17120,17212,17085.0,31,17090.0,52,17090.0,17095.0,17090.0,17095.0,97,97,17095,18,17100,51
2016-11-07 08:50:00,08:50:03,08:50:42,17227,17260,17095.0,39,17100.0,55,17095.0,17095.0,17095.0,17095.0,24,-12,17095,43,17095,31
2016-11-07 08:51:00,08:51:00,08:51:09,17272,17315,17090.0,85,17095.0,33,17095.0,17100.0,17095.0,17100.0,53,43,17095,37,17100,35
2016-11-07 08:52:00,08:52:04,08:52:44,17345,17533,17095.0,33,17100.0,45,17100.0,17100.0,17075.0,17080.0,254,-142,17075,57,17085,51
2016-11-07 08:53:00,08:53:01,08:53:49,17560,17685,17075.0,56,17080.0,27,17080.0,17080.0,17075.0,17075.0,176,28,17070,56,17075,58
2016-11-07 08:54:00,08:54:04,08:54:54,17705,17764,17070.0,54,17075.0,54,17075.0,17075.0,17075.0,17075.0,53,53,17075,38,17080,51
2016-11-07 08:55:00,08:55:02,08:55:59,17777,17972,17075.0,32,17080.0,57,17080.0,17080.0,17065.0,17070.0,198,-186,17065,108,17070,71
2016-11-07 08:56:00,08:56:03,08:56:53,17976,18147,17065.0,108,17070.0,75,17070.0,17070.0,17060.0,17065.0,283,-35,17060,55,17065,26
2016-11-07 08:57:00,08:57:03,08:57:41,18167,18289,17060.0,45,17065.0,71,17060.0,17070.0,17060.0,17070.0,175,43,17065,52,17070,67
2016-11-07 08:58:00,08:58:03,08:58:50,18294,18362,17065.0,52,17070.0,70,17070.0,17070.0,17070.0,17070.0,84,84,17065,51,17070,63
2016-11-07 08:59:00,08:59:01,08:59:57,18371,18641,17065.0,50,17070.0,74,17070.0,17090.0,17070.0,17085.0,368,264,17080,57,17085,17
2016-11-07 09:00:00,09:00:00,09:00:52,18651,18919,17080.0,63,17085.0,24,17080.0,17095.0,17080.0,17095.0,386,190,17090,54,17095,22
2016-11-07 09:01:00,09:01:02,09:01:44,18930,19001,17090.0,49,17095.0,38,17095.0,17095.0,17095.0,17095.0,68,68,17090,55,17095,53
2016-11-07 09:02:00,09:02:00,09:02:37,19027,19118,17090.0,48,17095.0,74,17095.0,17100.0,17095.0,17095.0,125,51,17095,18,17100,53
2016-11-07 09:03:00,09:03:01,09:03:45,19141,19323,17095.0,45,17100.0,39,17100.0,17105.0,17095.0,17100.0,276,-8,17095,53,17100,9
2016-11-07 09:04:00,09:04:01,09:04:22,19349,19410,17095.0,61,17100.0,24,17100.0,17100.0,17095.0,17100.0,106,86,17095,64,17100,33
2016-11-07 09:05:00,09:05:02,09:05:48,19447,19562,17095.0,67,17100.0,50,17100.0,17105.0,17095.0,17105.0,112,44,17100,43,17105,23
2016-11-07 09:06:00,09:06:00,09:06:39,19581,19736,17100.0,43,17105.0,44,17105.0,17105.0,17090.0,17095.0,175,-45,17095,7,17100,46
2016-11-07 09:07:00,09:07:25,09:07:38,19778,19805,17095.0,23,17100.0,77,17095.0,17095.0,17095.0,17095.0,19,-15,17090,57,17095,29
2016-11-07 09:08:00,09:08:06,09:08:59,19843,20040,17090.0,48,17095.0,42,17090.0,17090.0,17085.0,17085.0,159,-5,17080,58,17085,6
2016-11-07 09:09:00,09:09:14,09:09:53,20070,20336,17080.0,59,17085.0,30,17080.0,17090.0,17075.0,17090.0,345,6,17085,32,17090,68
2016-11-07 09:10:00,09:10:15,09:10:49,20360,20463,17085.0,60,17090.0,66,17090.0,17100.0,17090.0,17095.0,125,125,17095,61,17100,38
2016-11-07 09:11:00,09:11:02,09:11:59,20483,20708,17095.0,66,17100.0,45,17100.0,17105.0,17095.0,17095.0,267,-11,17095,56,17100,106
2016-11-07 09:12:00,09:12:00,09:12:55,20711,20892,17095.0,56,17100.0,106,17095.0,17100.0,17095.0,17100.0,259,35,17095,45,17100,48
2016-11-07 09:13:00,09:13:07,09:13:35,20909,20973,17095.0,8,17100.0,57,17095.0,17095.0,17095.0,17095.0,50,24,17090,53,17095,50
2016-11-07 09:14:00,09:14:36,09:14:57,21030,21086,17090.0,57,17095.0,51,17095.0,17095.0,17090.0,17090.0,72,-6,17085,35,17090,54
2016-11-07 09:15:00,09:15:02,09:15:43,21094,21237,17085.0,41,17090.0,50,17090.0,17095.0,17090.0,17095.0,166,86,17095,3,17100,58
2016-11-07 09:16:00,09:16:00,09:16:55,21254,21441,17095.0,34,17100.0,49,17095.0,17110.0,17095.0,17105.0,167,63,17105,23,17110,50
2016-11-07 09:17:00,09:17:00,09:17:47,21442,21505,17105.0,28,17110.0,45,17105.0,17110.0,17105.0,17105.0,56,14,17105,10,17110,50
2016-11-07 09:18:00,09:18:14,09:18:52,21534,21664,17105.0,19,17110.0,55,17110.0,17110.0,17090.0,17090.0,189,-149,17090,9,17095,46
2016-11-07 09:19:00,09:19:02,09:19:56,21678,21836,17090.0,31,17095.0,49,17095.0,17105.0,17095.0,17105.0,189,47,17100,19,17105,54
2016-11-07 09:20:00,09:20:00,09:20:46,21846,22074,17100.0,31,17105.0,45,17100.0,17110.0,17100.0,17110.0,340,252,17110,6,17115,42
2016-11-07 09:21:00,09:21:00,09:21:53,22094,22178,17110.0,24,17115.0,46,17110.0,17110.0,17110.0,17110.0,50,-47,17110,3,17115,56
2016-11-07 09:22:00,09:22:10,09:22:10,22198,22202,17110.0,30,17115.0,55,17110.0,17110.0,17110.0,17110.0,6,-6,17110,27,17115,51
2016-11-07 09:23:00,09:23:04,09:23:58,22247,22317,17110.0,44,17115.0,46,17110.0,17115.0,17110.0,17110.0,56,24,17110,32,17115,35
2016-11-07 09:24:00,09:24:02,09:24:53,22323,22370,17110.0,33,17115.0,40,17110.0,17115.0,17105.0,17105.0,23,-21,17105,46,17110,59
2016-11-07 09:25:00,09:25:30,09:25:58,22387,22529,17105.0,39,17110.0,79,17110.0,17115.0,17100.0,17110.0,189,61,17105,87,17110,27
2016-11-07 09:26:00,09:26:24,09:26:37,22564,22588,17105.0,40,17110.0,60,17105.0,17105.0,17105.0,17105.0,34,-34,17100,47,17105,76
2016-11-07 09:27:00,09:27:00,09:27:59,22615,22749,17100.0,42,17105.0,90,17100.0,17105.0,17100.0,17105.0,145,-83,17100,23,17105,48
2016-11-07 09:28:00,09:28:04,09:28:53,22754,22804,17100.0,33,17105.0,47,17105.0,17105.0,17100.0,17100.0,19,-3,17100,17,17105,61
2016-11-07 09:29:00,09:29:11,09:29:59,22815,22948,17100.0,27,17105.0,62,17105.0,17110.0,17105.0,17105.0,155,111,17105,38,17110,66
2016-11-07 09:30:00,09:30:00,09:30:54,22953,23189,17105.0,39,17110.0,67,17110.0,17115.0,17110.0,17115.0,287,173,17110,68,17115,18
2016-11-07 09:31:00,09:31:05,09:31:55,23210,23354,17110.0,71,17115.0,31,17115.0,17115.0,17110.0,17115.0,144,-10,17110,95,17115,18
2016-11-07 09:32:00,09:32:00,09:32:56,23359,23432,17110.0,96,17115.0,20,17115.0,17115.0,17115.0,17115.0,18,18,17110,59,17115,102
2016-11-07 09:33:00,09:33:02,09:33:56,23441,23550,17110.0,65,17115.0,99,17115.0,17115.0,17110.0,17110.0,117,3,17110,15,17115,108
2016-11-07 09:34:00,09:34:00,09:34:52,23557,23644,17110.0,10,17115.0,108,17110.0,17115.0,17110.0,17115.0,26,-8,17110,77,17115,102
2016-11-07 09:35:00,09:35:04,09:35:59,23657,23819,17110.0,78,17115.0,100,17115.0,17130.0,17115.0,17130.0,220,192,17125,45,17130,84
2016-11-07 09:36:00,09:36:02,09:36:47,23826,23997,17125.0,68,17130.0,87,17130.0,17130.0,17110.0,17115.0,243,-169,17110,66,17115,33
2016-11-07 09:37:00,09:37:31,09:37:54,24049,24087,17110.0,73,17115.0,31,17115.0,17115.0,17110.0,17115.0,20,-4,17110,74,17115,25
2016-11-07 09:38:00,09:38:00,09:38:52,24098,24222,17110.0,72,17115.0,43,17115.0,17120.0,17115.0,17120.0,142,142,17115,89,17120,63
2016-11-07 09:39:00,09:39:12,09:39:41,24245,24281,17115.0,87,17120.0,63,17115.0,17120.0,17115.0,17120.0,7,-5,17115,92,17120,58
2016-11-07 09:40:00,09:40:06,09:40:06,24313,24314,17115.0,71,17120.0,56,17115.0,17115.0,17115.0,17115.0,6,-6,17115,65,17120,53
2016-11-07 09:41:00,09:41:00,09:41:58,24364,24453,17115.0,58,17120.0,73,17115.0,17120.0,17110.0,17115.0,81,-55,17110,47,17115,85
2016-11-07 09:42:00,09:42:00,09:42:49,24458,24507,17110.0,49,17115.0,84,17115.0,17115.0,17110.0,17110.0,29,-15,17110,56,17115,79
2016-11-07 09:43:00,09:43:03,09:43:43,24515,24581,17110.0,63,17115.0,79,17115.0,17115.0,17110.0,17110.0,81,-71,17110,34,17115,58
2016-11-07 09:44:00,09:44:31,09:44:53,24636,24686,17110.0,22,17115.0,69,17110.0,17110.0,17105.0,17105.0,47,-47,17100,71,17105,39
2016-11-07 09:45:00,09:45:02,09:45:56,24709,24863,17100.0,68,17105.0,48,17105.0,17110.0,17105.0,17110.0,127,111,17105,58,17110,20
2016-11-07 09:46:00,09:46:04,09:46:52,24877,25048,17105.0,68,17110.0,27,17110.0,17110.0,17105.0,17105.0,150,-38,17105,16,17110,59
2016-11-07 09:47:00,09:47:53,09:47:53,25122,25122,17105.0,47,17110.0,50,17105.0,17105.0,17105.0,17105.0,1,-1,17105,25,17110,53
2016-11-07 09:48:00,09:48:02,09:48:50,25145,25249,17105.0,52,17110.0,52,17110.0,17110.0,17105.0,17105.0,75,25,17105,24,17110,46
2016-11-07 09:49:00,09:49:38,09:49:42,25312,25358,17105.0,58,17110.0,66,17105.0,17105.0,17105.0,17105.0,62,-28,17105,16,17110,69
2016-11-07 09:50:00,09:50:00,09:50:37,25378,25486,17105.0,26,17110.0,76,17110.0,17110.0,17105.0,17105.0,91,-1,17105,7,17110,72
2016-11-07 09:51:00,09:51:12,09:51:34,25528,25567,17105.0,40,17110.0,64,17110.0,17110.0,17105.0,17105.0,37,23,17105,51,17110,49
2016-11-07 09:52:00,09:52:02,09:52:53,25606,25743,17105.0,54,17110.0,55,17110.0,17110.0,17105.0,17110.0,91,19,17105,59,17115,57
2016-11-07 09:53:00,09:53:06,09:53:44,25753,25880,17110.0,16,17115.0,60,17110.0,17110.0,17100.0,17105.0,148,-84,17105,47,17110,61
2016-11-07 09:54:00,09:54:01,09:54:54,25907,26009,17105.0,60,17110.0,34,17110.0,17115.0,17110.0,17115.0,62,62,17115,44,17120,52
2016-11-07 09:55:00,09:55:59,09:55:59,26050,26054,17115.0,56,17120.0,63,17115.0,17120.0,17115.0,17120.0,3,-1,17115,46,17120,63
2016-11-07 09:56:00,09:56:00,09:56:47,26057,26176,17115.0,46,17120.0,63,17115.0,17120.0,17115.0,17120.0,67,13,17115,40,17120,50
2016-11-07 09:57:00,09:57:04,09:57:56,26204,26296,17115.0,43,17120.0,55,17120.0,17125.0,17120.0,17120.0,83,81,17120,38,17125,43
2016-11-07 09:58:00,09:58:04,09:58:38,26308,26397,17120.0,41,17125.0,43,17125.0,17125.0,17115.0,17120.0,72,28,17120,52,17125,44
2016-11-07 09:59:00,09:59:13,09:59:59,26423,26549,17120.0,63,17125.0,36,17120.0,17130.0,17120.0,17125.0,85,17,17120,64,17130,86
2016-11-07 10:00:00,10:00:09,10:00:50,26559,26674,17125.0,44,17130.0,85,17130.0,17130.0,17130.0,17130.0,122,50,17125,70,17130,22
2016-11-07 10:01:00,10:01:00,10:01:50,26686,26933,17125.0,53,17130.0,50,17125.0,17125.0,17120.0,17120.0,286,126,17115,59,17125,55
2016-11-07 10:02:00,10:02:03,10:02:53,26953,27121,17115.0,59,17120.0,34,17115.0,17120.0,17115.0,17115.0,119,61,17110,46,17120,41
2016-11-07 10:03:00,10:03:07,10:03:52,27137,27215,17110.0,35,17115.0,85,17110.0,17115.0,17110.0,17115.0,58,26,17110,58,17115,32
2016-11-07 10:04:00,10:04:04,10:04:36,27233,27321,17110.0,55,17115.0,42,17110.0,17115.0,17110.0,17115.0,95,62,17110,63,17115,8
2016-11-07 10:05:00,10:05:02,10:05:39,27354,27468,17115.0,55,17120.0,35,17120.0,17120.0,17120.0,17120.0,83,15,17115,69,17120,2
2016-11-07 10:06:00,10:06:01,10:06:13,27485,27507,17115.0,65,17120.0,23,17120.0,17120.0,17120.0,17120.0,10,10,17115,56,17120,34
2016-11-07 10:07:00,10:07:00,10:07:54,27549,27680,17115.0,42,17120.0,48,17115.0,17115.0,17115.0,17115.0,79,18,17110,54,17115,36
2016-11-07 10:08:00,10:08:24,10:08:36,27694,27719,17110.0,53,17115.0,32,17115.0,17115.0,17110.0,17110.0,17,3,17110,49,17115,37
2016-11-07 10:09:00,10:09:30,10:09:45,27748,27779,17110.0,49,17115.0,75,17110.0,17115.0,17110.0,17110.0,21,-19,17110,32,17115,79
2016-11-07 10:10:00,10:10:23,10:10:50,27826,27884,17110.0,33,17115.0,89,17110.0,17110.0,17105.0,17110.0,50,-38,17105,57,17110,71
2016-11-07 10:11:00,10:11:19,10:11:52,27899,27990,17105.0,77,17110.0,66,17105.0,17115.0,17105.0,17115.0,110,78,17115,11,17120,80
2016-11-07 10:12:00,10:12:28,10:12:58,28020,28034,17115.0,74,17120.0,68,17115.0,17115.0,17115.0,17115.0,8,-8,17115,64,17120,73
2016-11-07 10:13:00,10:13:00,10:13:40,28039,28142,17115.0,66,17120.0,74,17120.0,17125.0,17115.0,17125.0,133,51,17120,49,17125,115
2016-11-07 10:14:00,10:14:10,10:14:46,28174,28291,17120.0,21,17125.0,124,17125.0,17125.0,17120.0,17120.0,128,-32,17115,51,17120,43
2016-11-07 10:15:00,10:15:01,10:15:52,28302,28384,17115.0,51,17120.0,48,17120.0,17125.0,17120.0,17125.0,56,54,17120,32,17125,107
2016-11-07 10:16:00,10:16:00,10:16:52,28394,28492,17120.0,46,17125.0,103,17125.0,17130.0,17120.0,17130.0,114,52,17125,49,17130,49
2016-11-07 10:17:00,10:17:09,10:17:53,28512,28641,17125.0,49,17130.0,52,17125.0,17125.0,17120.0,17120.0,114,-68,17115,50,17120,47
2016-11-07 10:18:00,10:18:03,10:18:56,28650,28740,17115.0,49,17120.0,47,17120.0,17120.0,17115.0,17120.0,81,-1,17115,39,17120,56
2016-11-07 10:19:00,10:19:16,10:19:23,28762,28820,17115.0,39,17120.0,58,17120.0,17125.0,17120.0,17125.0,120,118,17125,42,17130,46
2016-11-07 10:20:00,10:20:17,10:20:46,28891,28950,17125.0,64,17130.0,38,17130.0,17135.0,17130.0,17135.0,53,51,17130,81,17135,45
2016-11-07 10:21:00,10:21:03,10:21:57,28965,29132,17130.0,85,17135.0,33,17135.0,17145.0,17135.0,17145.0,132,92,17140,61,17145,56
2016-11-07 10:22:00,10:22:13,10:22:55,29145,29355,17140.0,62,17145.0,50,17145.0,17150.0,17145.0,17150.0,228,132,17145,60,17150,11
2016-11-07 10:23:00,10:23:05,10:23:51,29370,29458,17145.0,55,17150.0,48,17150.0,17150.0,17145.0,17145.0,89,-73,17140,58,17145,7
2016-11-07 10:24:00,10:24:05,10:24:58,29473,29630,17140.0,65,17145.0,25,17145.0,17150.0,17140.0,17150.0,121,63,17145,24,17150,59
2016-11-07 10:25:00,10:25:01,10:25:57,29637,29936,17145.0,27,17150.0,60,17150.0,17155.0,17150.0,17150.0,310,-52,17150,41,17155,62
2016-11-07 10:26:00,10:26:00,10:26:58,29941,30064,17150.0,34,17155.0,66,17150.0,17150.0,17145.0,17145.0,112,0,17145,47,17150,53
2016-11-07 10:27:00,10:27:00,10:27:43,30071,30212,17145.0,42,17150.0,62,17145.0,17145.0,17140.0,17140.0,164,-120,17140,46,17145,34
2016-11-07 10:28:00,10:28:03,10:28:59,30237,30407,17140.0,49,17145.0,55,17140.0,17140.0,17140.0,17140.0,165,-3,17135,68,17140,3
2016-11-07 10:29:00,10:29:08,10:29:59,30424,30542,17135.0,69,17140.0,8,17135.0,17140.0,17135.0,17140.0,66,54,17135,61,17140,7
2016-11-07 10:30:00,10:30:11,10:30:49,30556,30659,17135.0,63,17140.0,27,17140.0,17150.0,17140.0,17145.0,101,53,17145,37,17150,51
2016-11-07 10:31:00,10:31:02,10:31:56,30671,30872,17145.0,48,17150.0,53,17150.0,17155.0,17140.0,17140.0,243,-35,17140,20,17145,63
2016-11-07 10:32:00,10:32:05,10:32:43,30886,30984,17140.0,44,17145.0,61,17145.0,17145.0,17140.0,17140.0,63,-1,17140,39,17145,50
2016-11-07 10:33:00,10:33:29,10:33:49,31020,31079,17140.0,47,17145.0,45,17140.0,17140.0,17140.0,17140.0,80,-56,17140,17,17145,57
2016-11-07 10:34:00,10:34:04,10:34:34,31100,31191,17140.0,40,17145.0,37,17140.0,17140.0,17140.0,17140.0,74,-20,17140,17,17145,46
2016-11-07 10:35:00,10:35:00,10:35:00,0,0,0.0,0,0.0,0,17140.0,17140.0,17140.0,17140.0,0,0,0,0,0,0
2016-11-07 10:36:00,10:36:02,10:36:31,31238,31272,17140.0,52,17145.0,26,17145.0,17150.0,17145.0,17150.0,17,15,17145,49,17150,39
2016-11-07 10:37:00,10:37:14,10:37:19,31298,31344,17145.0,26,17150.0,51,17150.0,17150.0,17150.0,17150.0,73,55,17145,52,17150,23
2016-11-07 10:38:00,10:38:00,10:38:56,31388,31482,17145.0,40,17150.0,43,17145.0,17145.0,17140.0,17140.0,103,-65,17140,27,17145,42
2016-11-07 10:39:00,10:39:03,10:39:40,31486,31513,17140.0,28,17145.0,42,17140.0,17140.0,17140.0,17140.0,9,-9,17140,28,17145,40
2016-11-07 10:40:00,10:40:01,10:40:23,31525,31577,17140.0,23,17145.0,47,17140.0,17140.0,17140.0,17140.0,36,0,17140,17,17145,91
2016-11-07 10:41:00,10:41:00,10:41:55,31611,31659,17140.0,13,17145.0,91,17140.0,17140.0,17140.0,17140.0,33,-33,17140,2,17145,94
2016-11-07 10:42:00,10:42:02,10:42:53,31662,31741,17140.0,2,17145.0,94,17140.0,17140.0,17135.0,17135.0,70,-34,17130,52,17140,42
2016-11-07 10:43:00,10:43:24,10:43:55,31758,31799,17135.0,6,17140.0,49,17135.0,17135.0,17135.0,17135.0,29,16,17135,17,17140,42
2016-11-07 10:44:00,10:44:24,10:44:28,31813,31817,17135.0,5,17140.0,41,17135.0,17135.0,17135.0,17135.0,5,-5,17130,54,17135,25
2016-11-07 10:45:00,10:45:43,10:45:43,31849,31850,17130.0,54,17135.0,37,17135.0,17135.0,17135.0,17135.0,3,3,17130,57,17135,21
2016-11-07 10:46:00,10:46:13,10:46:55,31872,31945,17130.0,60,17135.0,34,17135.0,17135.0,17135.0,17135.0,56,24,17135,7,17140,43
2016-11-07 10:47:00,10:47:07,10:47:52,31952,31985,17135.0,11,17140.0,42,17135.0,17140.0,17135.0,17140.0,11,7,17140,34,17145,80
2016-11-07 10:48:00,10:48:50,10:48:59,32001,32062,17140.0,46,17145.0,83,17140.0,17140.0,17135.0,17140.0,71,-27,17140,5,17140,34
2016-11-07 10:49:00,10:49:00,10:49:38,32063,32107,17140.0,8,17145.0,88,17140.0,17140.0,17140.0,17140.0,15,3,17140,58,17145,78
2016-11-07 10:50:00,10:50:05,10:50:05,32114,32121,17140.0,58,17145.0,71,17145.0,17145.0,17140.0,17140.0,13,11,17140,54,17145,75
2016-11-07 10:51:00,10:51:12,10:51:45,32157,32205,17140.0,46,17145.0,79,17140.0,17145.0,17140.0,17145.0,84,70,17145,30,17150,38
2016-11-07 10:52:00,10:52:22,10:52:58,32247,32316,17145.0,26,17150.0,44,17145.0,17145.0,17140.0,17140.0,59,-59,17140,22,17145,46
2016-11-07 10:53:00,10:53:00,10:53:00,0,0,0.0,0,0.0,0,17140.0,17140.0,17140.0,17140.0,0,0,0,0,0,0
2016-11-07 10:54:00,10:54:05,10:54:34,32367,32403,17140.0,11,17145.0,57,17140.0,17145.0,17140.0,17145.0,19,-11,17140,52,17145,23
2016-11-07 10:55:00,10:55:23,10:55:23,32427,32437,17140.0,53,17145.0,27,17145.0,17145.0,17145.0,17145.0,14,14,17140,55,17145,12
2016-11-07 10:56:00,10:56:08,10:56:30,32455,32494,17140.0,55,17145.0,15,17145.0,17145.0,17145.0,17145.0,34,8,17140,48,17145,11
2016-11-07 10:57:00,10:57:04,10:57:21,32513,32544,17140.0,37,17145.0,37,17145.0,17145.0,17140.0,17140.0,25,-9,17140,18,17145,46
2016-11-07 10:58:00,10:58:08,10:58:46,32572,32618,17140.0,27,17145.0,41,17140.0,17140.0,17140.0,17140.0,47,9,17140,41,17145,35
2016-11-07 10:59:00,10:59:50,10:59:50,32655,32666,17140.0,35,17145.0,42,17140.0,17140.0,17140.0,17140.0,28,-28,17140,7,17145,47
2016-11-07 11:00:00,11:00:30,11:00:51,32711,32747,17140.0,38,17145.0,27,17145.0,17145.0,17145.0,17145.0,17,15,17145,28,17150,58
2016-11-07 11:01:00,11:01:18,11:01:38,32763,32815,17145.0,26,17150.0,60,17145.0,17145.0,17140.0,17140.0,36,-24,17140,30,17145,43
2016-11-07 11:02:00,11:02:34,11:02:34,32862,32862,17135.0,67,17140.0,5,17140.0,17140.0,17140.0,17140.0,2,2,17135,62,17140,11
2016-11-07 11:03:00,11:03:26,11:03:26,32884,32888,17135.0,64,17140.0,17,17140.0,17140.0,17140.0,17140.0,8,8,17135,69,17140,10
2016-11-07 11:04:00,11:04:09,11:04:44,32905,32970,17135.0,71,17140.0,12,17135.0,17140.0,17135.0,17135.0,56,-54,17130,48,17135,9
2016-11-07 11:05:00,11:05:04,11:05:15,32989,33024,17130.0,55,17135.0,22,17135.0,17135.0,17135.0,17135.0,31,-3,17135,27,17140,48
2016-11-07 11:06:00,11:06:07,11:06:24,33058,33072,17135.0,21,17140.0,52,17135.0,17135.0,17135.0,17135.0,9,-1,17130,53,17135,28
2016-11-07 11:07:00,11:07:43,11:07:43,33096,33096,17130.0,54,17135.0,21,17135.0,17135.0,17135.0,17135.0,1,1,17130,53,17135,26
2016-11-07 11:08:00,11:08:00,11:08:00,0,0,0.0,0,0.0,0,17135.0,17135.0,17135.0,17135.0,0,0,0,0,0,0
2016-11-07 11:09:00,11:09:00,11:09:00,0,0,0.0,0,0.0,0,17135.0,17135.0,17135.0,17135.0,0,0,0,0,0,0
2016-11-07 11:10:00,11:10:04,11:10:09,33121,33145,17130.0,54,17135.0,32,17135.0,17135.0,17135.0,17135.0,31,31,17130,51,17135,18
2016-11-07 11:11:00,11:11:27,11:11:27,33172,33183,17130.0,51,17135.0,32,17135.0,17135.0,17135.0,17135.0,18,18,17130,52,17135,14
2016-11-07 11:12:00,11:12:00,11:12:00,0,0,0.0,0,0.0,0,17135.0,17135.0,17135.0,17135.0,0,0,0,0,0,0
2016-11-07 11:13:00,11:13:23,11:13:59,33216,33320,17130.0,51,17135.0,32,17135.0,17135.0,17135.0,17135.0,145,127,17135,26,17140,51
2016-11-07 11:14:00,11:14:32,11:14:57,33354,33423,17135.0,70,17140.0,48,17140.0,17140.0,17140.0,17140.0,101,99,17140,44,17145,63
2016-11-07 11:15:00,11:15:07,11:15:30,33434,33491,17140.0,50,17145.0,48,17145.0,17145.0,17145.0,17145.0,95,95,17140,58,17145,12
2016-11-07 11:16:00,11:16:44,11:16:53,33536,33540,17140.0,57,17145.0,29,17145.0,17145.0,17145.0,17145.0,2,2,17140,55,17145,17
2016-11-07 11:17:00,11:17:13,11:17:58,33551,33564,17140.0,54,17145.0,35,17140.0,17145.0,17140.0,17145.0,6,4,17140,54,17145,28
2016-11-07 11:18:00,11:18:15,11:18:57,33571,33603,17140.0,56,17145.0,19,17145.0,17145.0,17145.0,17145.0,30,2,17140,53,17145,10
2016-11-07 11:19:00,11:19:12,11:19:15,33614,33654,17140.0,59,17145.0,27,17145.0,17150.0,17145.0,17150.0,66,64,17150,34,17155,29
2016-11-07 11:20:00,11:20:59,11:20:59,33707,33711,17150.0,42,17155.0,35,17155.0,17155.0,17155.0,17155.0,3,3,17150,48,17155,29
2016-11-07 11:21:00,11:21:20,11:21:59,33720,33752,17150.0,47,17155.0,39,17155.0,17155.0,17155.0,17155.0,17,17,17150,48,17155,24
2016-11-07 11:22:00,11:22:00,11:22:00,0,0,0.0,0,0.0,0,17155.0,17155.0,17155.0,17155.0,0,0,0,0,0,0
2016-11-07 11:23:00,11:23:07,11:23:52,33768,33783,17150.0,48,17155.0,41,17150.0,17155.0,17150.0,17155.0,4,0,17150,47,17155,38
2016-11-07 11:24:00,11:24:37,11:24:53,33796,33816,17150.0,47,17155.0,51,17155.0,17155.0,17150.0,17150.0,18,6,17150,46,17155,36
2016-11-07 11:25:00,11:25:05,11:25:51,33830,34084,17150.0,47,17155.0,37,17155.0,17160.0,17155.0,17160.0,277,113,17155,59,17165,60
2016-11-07 11:26:00,11:26:02,11:26:52,34089,34241,17155.0,59,17160.0,7,17160.0,17170.0,17160.0,17170.0,173,103,17165,54,17170,26
2016-11-07 11:27:00,11:27:00,11:27:07,34249,34299,17165.0,71,17170.0,46,17170.0,17170.0,17170.0,17170.0,57,57,17170,11,17175,39
2016-11-07 11:28:00,11:28:11,11:28:48,34346,34424,17170.0,62,17175.0,42,17175.0,17175.0,17170.0,17170.0,62,-38,17165,62,17170,35
2016-11-07 11:29:00,11:29:06,11:29:54,34440,34481,17165.0,69,17170.0,39,17170.0,17170.0,17165.0,17165.0,13,-5,17165,45,17165,11
2016-11-07 11:30:00,11:30:00,11:30:33,34484,34659,17165.0,66,17170.0,48,17165.0,17165.0,17160.0,17160.0,202,-30,17155,46,17160,50
2016-11-07 11:31:00,11:31:02,11:31:57,34689,34805,17155.0,48,17160.0,72,17155.0,17155.0,17150.0,17150.0,80,-80,17150,95,17155,39
2016-11-07 11:32:00,11:32:01,11:32:51,34808,34837,17150.0,94,17155.0,40,17155.0,17155.0,17150.0,17150.0,8,-6,17150,94,17155,39
2016-11-07 11:33:00,11:33:00,11:33:44,34840,34919,17150.0,95,17155.0,41,17150.0,17160.0,17150.0,17155.0,54,8,17150,86,17155,57
2016-11-07 11:34:00,11:34:25,11:34:58,34932,34957,17150.0,86,17155.0,68,17155.0,17155.0,17150.0,17150.0,6,-2,17150,80,17155,74
2016-11-07 11:35:00,11:35:07,11:35:52,34962,34994,17150.0,82,17155.0,78,17150.0,17150.0,17150.0,17150.0,6,-6,17150,76,17155,79
2016-11-07 11:36:00,11:36:01,11:36:56,35001,35111,17150.0,76,17155.0,87,17150.0,17155.0,17145.0,17145.0,149,-91,17145,45,17150,84
2016-11-07 11:37:00,11:37:14,11:37:50,35131,35159,17145.0,53,17150.0,79,17145.0,17145.0,17145.0,17145.0,7,-7,17145,41,17150,85
2016-11-07 11:38:00,11:38:08,11:38:46,35171,35198,17145.0,32,17150.0,84,17145.0,17150.0,17145.0,17150.0,8,-6,17145,43,17150,84
2016-11-07 11:39:00,11:39:02,11:39:20,35207,35298,17145.0,36,17150.0,85,17145.0,17145.0,17145.0,17145.0,117,-65,17145,74,17150,48
2016-11-07 11:40:00,11:40:29,11:40:43,35346,35418,17145.0,90,17150.0,62,17145.0,17145.0,17145.0,17145.0,91,-55,17140,66,17145,28
2016-11-07 11:41:00,11:41:26,11:41:49,35446,35470,17140.0,67,17145.0,24,17145.0,17145.0,17145.0,17145.0,23,21,17145,79,17150,54
2016-11-07 11:42:00,11:42:23,11:42:34,35496,35550,17145.0,73,17150.0,59,17150.0,17150.0,17145.0,17145.0,73,-39,17145,56,17150,62
2016-11-07 11:43:00,11:43:04,11:43:29,35561,35580,17145.0,60,17150.0,62,17145.0,17150.0,17145.0,17150.0,8,-6,17145,60,17150,58
2016-11-07 11:44:00,11:44:05,11:44:55,35617,35749,17145.0,39,17150.0,71,17145.0,17145.0,17135.0,17135.0,137,-125,17135,70,17140,11
2016-11-07 11:45:00,11:45:03,11:45:08,35757,35776,17135.0,70,17140.0,12,17140.0,17140.0,17140.0,17140.0,20,18,17140,55,17145,36
2016-11-07 11:46:00,11:46:04,11:46:49,35823,35958,17140.0,50,17145.0,34,17145.0,17150.0,17145.0,17150.0,138,106,17145,54,17150,22
2016-11-07 11:47:00,11:47:04,11:47:49,35972,36035,17145.0,59,17150.0,30,17150.0,17150.0,17145.0,17150.0,41,39,17145,47,17150,36
2016-11-07 11:48:00,11:48:00,11:48:43,36046,36075,17145.0,51,17150.0,28,17145.0,17150.0,17145.0,17150.0,11,-7,17145,29,17150,51
2016-11-07 11:49:00,11:49:02,11:49:43,36080,36142,17145.0,28,17150.0,52,17145.0,17145.0,17140.0,17140.0,23,-23,17140,43,17145,40
2016-11-07 11:50:00,11:50:03,11:50:58,36170,36272,17140.0,38,17145.0,46,17140.0,17140.0,17135.0,17140.0,88,-22,17135,69,17140,34
2016-11-07 11:51:00,11:51:15,11:51:39,36295,36316,17135.0,100,17140.0,48,17135.0,17140.0,17135.0,17135.0,11,7,17135,105,17140,45
2016-11-07 11:52:00,11:52:20,11:52:27,36345,36358,17135.0,101,17140.0,47,17140.0,17140.0,17135.0,17135.0,6,-2,17135,102,17140,47
2016-11-07 11:53:00,11:53:04,11:53:35,36382,36471,17135.0,95,17140.0,47,17135.0,17145.0,17135.0,17145.0,75,63,17140,82,17145,16
2016-11-07 11:54:00,11:54:08,11:54:09,36519,36532,17140.0,82,17145.0,21,17145.0,17145.0,17145.0,17145.0,13,8,17140,77,17145,8
2016-11-07 11:55:00,11:55:46,11:55:58,36574,36584,17140.0,71,17145.0,52,17140.0,17145.0,17140.0,17145.0,6,-4,17140,73,17145,51
2016-11-07 11:56:00,11:56:11,11:56:48,36591,36797,17140.0,73,17145.0,39,17145.0,17150.0,17145.0,17145.0,227,37,17140,63,17145,7
2016-11-07 11:57:00,11:57:14,11:57:54,36827,36878,17140.0,69,17145.0,38,17140.0,17145.0,17140.0,17145.0,58,56,17145,7,17150,50
2016-11-07 11:58:00,11:58:08,11:58:58,36894,37046,17145.0,25,17150.0,48,17150.0,17155.0,17150.0,17155.0,169,79,17150,68,17155,14
2016-11-07 11:59:00,11:59:00,11:59:26,37050,37132,17150.0,68,17155.0,22,17155.0,17160.0,17155.0,17155.0,96,32,17150,64,17160,67
2016-11-07 12:00:00,12:00:49,12:00:49,37193,37210,17155.0,22,17160.0,77,17155.0,17155.0,17155.0,17155.0,21,-19,17150,43,17155,73
2016-11-07 12:01:00,12:01:15,12:01:30,37221,37233,17150.0,28,17155.0,70,17150.0,17150.0,17150.0,17150.0,7,-7,17150,35,17155,70
2016-11-07 12:02:00,12:02:18,12:02:54,37256,37311,17150.0,35,17155.0,67,17150.0,17150.0,17145.0,17145.0,23,-23,17145,51,17150,59
2016-11-07 12:03:00,12:03:04,12:03:10,37318,37396,17145.0,47,17150.0,62,17150.0,17160.0,17150.0,17160.0,147,129,17155,49,17160,28
2016-11-07 12:04:00,12:04:07,12:04:07,37434,37434,17155.0,59,17160.0,44,17160.0,17160.0,17160.0,17160.0,1,1,17155,58,17160,42
2016-11-07 12:05:00,12:05:01,12:05:58,37449,37495,17155.0,54,17160.0,53,17160.0,17160.0,17155.0,17155.0,37,-29,17155,47,17160,60
2016-11-07 12:06:00,12:06:11,12:06:58,37506,37530,17155.0,48,17160.0,63,17155.0,17160.0,17155.0,17160.0,10,-2,17155,56,17160,48
2016-11-07 12:07:00,12:07:05,12:07:59,37534,37565,17155.0,56,17160.0,52,17155.0,17160.0,17155.0,17155.0,15,-11,17155,37,17160,60
2016-11-07 12:08:00,12:08:02,12:08:59,37570,37604,17155.0,39,17160.0,60,17160.0,17160.0,17155.0,17155.0,14,-2,17155,46,17160,54
2016-11-07 12:09:00,12:09:05,12:09:48,37608,37659,17155.0,47,17160.0,54,17160.0,17160.0,17155.0,17155.0,33,-31,17155,39,17160,64
2016-11-07 12:10:00,12:10:15,12:10:51,37674,37711,17155.0,34,17160.0,68,17160.0,17160.0,17155.0,17155.0,12,-4,17155,25,17160,72
2016-11-07 12:11:00,12:11:15,12:11:54,37722,37753,17155.0,35,17160.0,66,17155.0,17160.0,17155.0,17155.0,13,-5,17155,45,17160,55
2016-11-07 12:12:00,12:12:15,12:12:58,37768,37793,17155.0,48,17160.0,55,17160.0,17160.0,17155.0,17155.0,12,-4,17155,44,17160,53
2016-11-07 12:13:00,12:13:20,12:13:44,37801,37846,17155.0,57,17160.0,49,17155.0,17165.0,17155.0,17165.0,57,55,17160,59,17165,44
2016-11-07 12:14:00,12:14:17,12:14:58,37878,37895,17160.0,71,17165.0,67,17165.0,17165.0,17165.0,17165.0,4,4,17160,72,17165,61
2016-11-07 12:15:00,12:15:01,12:15:56,37900,38075,17160.0,77,17165.0,56,17165.0,17170.0,17160.0,17170.0,232,168,17170,45,17175,37
2016-11-07 12:16:00,12:16:01,12:16:48,38089,38166,17170.0,49,17175.0,53,17175.0,17175.0,17170.0,17170.0,77,-13,17170,15,17175,64
2016-11-07 12:17:00,12:17:38,12:17:57,38176,38215,17170.0,22,17175.0,69,17170.0,17170.0,17170.0,17170.0,65,39,17170,80,17175,42
2016-11-07 12:18:00,12:18:30,12:18:55,38244,38334,17170.0,60,17175.0,63,17170.0,17175.0,17165.0,17170.0,91,-13,17165,61,17170,5
2016-11-07 12:19:00,12:19:00,12:19:00,0,0,0.0,0,0.0,0,17170.0,17170.0,17170.0,17170.0,0,0,0,0,0,0
2016-11-07 12:20:00,12:20:21,12:20:48,38373,38388,17165.0,60,17170.0,46,17170.0,17170.0,17165.0,17165.0,10,-8,17165,59,17170,42
2016-11-07 12:21:00,12:21:15,12:21:51,38395,38449,17165.0,60,17170.0,47,17170.0,17170.0,17160.0,17160.0,70,-68,17160,32,17165,71
2016-11-07 12:22:00,12:22:19,12:22:58,38465,38505,17160.0,39,17165.0,74,17160.0,17160.0,17160.0,17160.0,36,-36,17160,20,17165,82
2016-11-07 12:23:00,12:23:00,12:23:58,38507,38571,17160.0,20,17165.0,84,17160.0,17165.0,17160.0,17165.0,39,-37,17160,18,17165,73
2016-11-07 12:24:00,12:24:10,12:24:15,38591,38596,17160.0,19,17165.0,75,17165.0,17165.0,17165.0,17165.0,12,12,17160,37,17165,65
2016-11-07 12:25:00,12:25:01,12:25:44,38613,38637,17160.0,33,17165.0,75,17160.0,17165.0,17160.0,17165.0,10,-4,17160,34,17165,81
2016-11-07 12:26:00,12:26:05,12:26:58,38651,38674,17160.0,41,17165.0,75,17160.0,17165.0,17160.0,17160.0,12,-6,17160,49,17165,64
2016-11-07 12:27:00,12:27:08,12:27:27,38678,38691,17160.0,50,17165.0,64,17160.0,17165.0,17160.0,17165.0,8,-6,17160,46,17165,70
2016-11-07 12:28:00,12:28:02,12:28:59,38705,38748,17160.0,46,17165.0,73,17165.0,17165.0,17160.0,17165.0,10,-4,17160,52,17165,68
2016-11-07 12:29:00,12:29:04,12:29:15,38752,38760,17160.0,52,17165.0,74,17160.0,17160.0,17160.0,17160.0,8,-8,17160,43,17165,69
2016-11-07 12:30:00,12:30:04,12:30:18,38788,38810,17160.0,32,17165.0,75,17165.0,17165.0,17160.0,17160.0,25,-19,17160,25,17165,75
2016-11-07 12:31:00,12:31:06,12:31:08,38843,38862,17160.0,24,17165.0,84,17160.0,17160.0,17160.0,17160.0,32,8,17160,26,17165,66
2016-11-07 12:32:00,12:32:07,12:32:46,38902,38922,17160.0,46,17165.0,73,17160.0,17160.0,17160.0,17160.0,8,-8,17160,37,17165,73
2016-11-07 12:33:00,12:33:01,12:33:45,38931,39069,17160.0,21,17165.0,77,17160.0,17160.0,17150.0,17155.0,136,12,17150,75,17155,57
2016-11-07 12:34:00,12:34:36,12:34:49,39092,39165,17150.0,51,17155.0,68,17150.0,17150.0,17145.0,17145.0,113,-113,17145,8,17150,94
2016-11-07 12:35:00,12:35:08,12:35:44,39187,39353,17145.0,30,17150.0,98,17145.0,17155.0,17145.0,17150.0,210,10,17150,49,17155,51
2016-11-07 12:36:00,12:36:02,12:36:40,39369,39423,17150.0,54,17155.0,39,17155.0,17155.0,17150.0,17150.0,50,48,17150,64,17155,51
2016-11-07 12:37:00,12:37:20,12:37:58,39476,39602,17150.0,45,17155.0,50,17150.0,17150.0,17145.0,17150.0,181,-161,17150,29,17155,58
2016-11-07 12:38:00,12:38:00,12:38:54,39605,39663,17150.0,29,17155.0,58,17150.0,17150.0,17145.0,17145.0,27,-27,17145,50,17150,44
2016-11-07 12:39:00,12:39:12,12:39:54,39677,39741,17145.0,58,17150.0,51,17150.0,17150.0,17150.0,17150.0,85,7,17145,62,17150,41
2016-11-07 12:40:00,12:40:33,12:40:37,39771,39790,17145.0,61,17150.0,34,17145.0,17150.0,17145.0,17150.0,50,38,17150,36,17155,56
2016-11-07 12:41:00,12:41:00,12:41:24,39812,39843,17150.0,33,17155.0,77,17150.0,17150.0,17150.0,17150.0,45,-25,17145,64,17150,26
2016-11-07 12:42:00,12:42:14,12:42:22,39885,39895,17145.0,65,17150.0,67,17145.0,17145.0,17145.0,17145.0,8,-8,17145,57,17150,61
2016-11-07 12:43:00,12:43:16,12:43:42,39927,40048,17145.0,60,17150.0,70,17145.0,17145.0,17135.0,17135.0,150,-150,17135,79,17140,43
2016-11-07 12:44:00,12:44:10,12:44:49,40066,40094,17135.0,70,17140.0,58,17135.0,17140.0,17135.0,17140.0,37,25,17135,79,17140,25
2016-11-07 12:45:00,12:45:05,12:45:54,40109,40273,17135.0,78,17140.0,35,17135.0,17145.0,17135.0,17145.0,154,56,17145,12,17150,80
2016-11-07 12:46:00,12:46:05,12:46:45,40287,40359,17145.0,52,17150.0,68,17145.0,17150.0,17145.0,17150.0,76,12,17150,70,17155,78
2016-11-07 12:47:00,12:47:17,12:47:30,40397,40406,17150.0,51,17155.0,76,17155.0,17155.0,17150.0,17150.0,9,-3,17150,45,17155,83
2016-11-07 12:48:00,12:48:20,12:48:46,40425,40497,17150.0,68,17155.0,70,17155.0,17155.0,17150.0,17155.0,54,12,17150,66,17155,13
2016-11-07 12:49:00,12:49:08,12:49:54,40516,40561,17150.0,70,17155.0,9,17155.0,17155.0,17150.0,17150.0,16,2,17150,66,17155,34
2016-11-07 12:50:00,12:50:02,12:50:57,40568,40767,17150.0,65,17155.0,33,17155.0,17165.0,17155.0,17165.0,173,115,17160,43,17165,67
2016-11-07 12:51:00,12:51:16,12:51:16,40775,40785,17160.0,38,17165.0,69,17160.0,17160.0,17160.0,17160.0,17,-17,17155,31,17160,51
2016-11-07 12:52:00,12:52:10,12:52:10,40833,40836,17155.0,55,17160.0,66,17155.0,17155.0,17155.0,17155.0,6,-6,17155,50,17160,59
2016-11-07 12:53:00,12:53:04,12:53:23,40880,40947,17155.0,37,17160.0,81,17155.0,17155.0,17155.0,17155.0,71,-23,17155,7,17160,76
2016-11-07 12:54:00,12:54:31,12:54:58,41007,41035,17155.0,23,17160.0,77,17155.0,17155.0,17150.0,17155.0,18,-16,17150,63,17155,43
2016-11-07 12:55:00,12:55:00,12:55:50,41038,41109,17150.0,63,17155.0,43,17155.0,17155.0,17150.0,17155.0,76,72,17150,65,17155,11
2016-11-07 12:56:00,12:56:04,12:56:23,41115,41158,17150.0,65,17155.0,8,17155.0,17155.0,17155.0,17155.0,38,-21,17150,74,17155,4
2016-11-07 12:57:00,12:57:17,12:57:20,41216,41228,17155.0,36,17160.0,78,17155.0,17160.0,17155.0,17160.0,24,12,17155,44,17160,52
2016-11-07 12:58:00,12:58:12,12:58:36,41256,41276,17155.0,41,17160.0,54,17155.0,17160.0,17155.0,17160.0,14,2,17155,43,17160,61
2016-11-07 12:59:00,12:59:06,12:59:47,41285,41395,17155.0,51,17160.0,73,17155.0,17160.0,17155.0,17160.0,133,29,17155,57,17160,13
2016-11-07 13:00:00,13:00:50,13:00:51,41441,41445,17155.0,44,17160.0,54,17155.0,17160.0,17155.0,17160.0,2,0,17155,43,17160,54
2016-11-07 13:01:00,13:01:03,13:01:55,41452,41554,17155.0,46,17160.0,57,17155.0,17165.0,17155.0,17165.0,85,53,17160,90,17165,45
2016-11-07 13:02:00,13:02:43,13:02:59,41585,41615,17160.0,44,17165.0,68,17165.0,17165.0,17160.0,17160.0,33,-27,17155,44,17160,71
2016-11-07 13:03:00,13:03:10,13:03:59,41629,41716,17155.0,57,17160.0,62,17155.0,17165.0,17155.0,17165.0,129,95,17160,68,17165,24
2016-11-07 13:04:00,13:04:11,13:04:41,41729,41769,17160.0,56,17165.0,42,17160.0,17165.0,17160.0,17160.0,17,-13,17160,35,17165,53
2016-11-07 13:05:00,13:05:00,13:05:57,41785,41863,17160.0,17,17165.0,59,17160.0,17160.0,17155.0,17160.0,78,22,17155,76,17160,25
2016-11-07 13:06:00,13:06:30,13:06:55,41881,41904,17155.0,81,17160.0,39,17160.0,17160.0,17155.0,17155.0,12,10,17155,88,17160,38
2016-11-07 13:07:00,13:07:03,13:07:49,41913,41974,17155.0,85,17160.0,48,17160.0,17160.0,17155.0,17160.0,42,30,17155,82,17160,48
2016-11-07 13:08:00,13:08:00,13:08:54,41978,42092,17155.0,83,17160.0,48,17155.0,17160.0,17155.0,17155.0,126,-93,17155,20,17160,71
2016-11-07 13:09:00,13:09:04,13:09:32,42109,42182,17155.0,37,17160.0,67,17160.0,17160.0,17155.0,17155.0,91,-5,17155,16,17160,62
2016-11-07 13:10:00,13:10:43,13:10:55,42239,42251,17155.0,90,17160.0,47,17160.0,17160.0,17155.0,17160.0,11,9,17155,93,17160,37
2016-11-07 13:11:00,13:11:01,13:11:49,42258,42380,17155.0,94,17160.0,22,17160.0,17165.0,17155.0,17165.0,111,55,17160,68,17165,48
2016-11-07 13:12:00,13:12:11,13:12:58,42398,42442,17160.0,85,17165.0,50,17165.0,17165.0,17160.0,17160.0,23,11,17160,76,17165,50
2016-11-07 13:13:00,13:13:05,13:13:57,42447,42606,17160.0,76,17165.0,50,17160.0,17175.0,17160.0,17175.0,187,71,17170,77,17175,20
2016-11-07 13:14:00,13:14:07,13:14:40,42625,42752,17170.0,64,17175.0,55,17170.0,17175.0,17170.0,17170.0,208,-14,17170,24,17175,59
2016-11-07 13:15:00,13:15:07,13:15:57,42802,43013,17170.0,58,17175.0,65,17175.0,17175.0,17175.0,17175.0,300,218,17175,53,17180,57
2016-11-07 13:16:00,13:16:02,13:16:49,43027,43158,17175.0,47,17180.0,62,17175.0,17175.0,17175.0,17175.0,199,39,17170,78,17175,22
2016-11-07 13:17:00,13:17:02,13:17:54,43170,43264,17170.0,82,17175.0,35,17175.0,17180.0,17175.0,17180.0,41,37,17175,86,17180,73
2016-11-07 13:18:00,13:18:07,13:18:42,43278,43508,17175.0,83,17180.0,83,17175.0,17185.0,17175.0,17180.0,295,-39,17175,63,17180,48
2016-11-07 13:19:00,13:19:06,13:19:56,43545,43752,17175.0,74,17180.0,64,17180.0,17190.0,17180.0,17185.0,308,214,17180,75,17185,37
2016-11-07 13:20:00,13:20:00,13:20:38,43757,43813,17180.0,75,17185.0,36,17185.0,17185.0,17185.0,17185.0,43,41,17180,72,17185,22
2016-11-07 13:21:00,13:21:23,13:21:53,43855,43900,17180.0,80,17185.0,63,17185.0,17185.0,17180.0,17185.0,34,-10,17180,58,17185,75
2016-11-07 13:22:00,13:22:01,13:22:57,43909,44068,17180.0,59,17185.0,76,17180.0,17185.0,17175.0,17180.0,154,-146,17175,125,17180,12
2016-11-07 13:23:00,13:23:20,13:23:56,44086,44141,17175.0,105,17180.0,77,17180.0,17180.0,17175.0,17180.0,55,-13,17175,100,17180,49
2016-11-07 13:24:00,13:24:02,13:24:55,44149,44241,17175.0,100,17180.0,51,17180.0,17180.0,17175.0,17175.0,145,-33,17175,68,17180,67
2016-11-07 13:25:00,13:25:01,13:25:56,44245,44318,17175.0,74,17180.0,67,17180.0,17180.0,17175.0,17180.0,42,4,17175,78,17180,57
2016-11-07 13:26:00,13:26:08,13:26:53,44332,44424,17175.0,72,17180.0,60,17180.0,17180.0,17180.0,17180.0,109,109,17175,85,17180,34
2016-11-07 13:27:00,13:27:02,13:27:59,44437,44647,17175.0,80,17180.0,51,17180.0,17185.0,17175.0,17180.0,278,174,17175,89,17185,82
2016-11-07 13:28:00,13:28:30,13:28:57,44681,44703,17175.0,68,17180.0,83,17180.0,17180.0,17180.0,17180.0,9,9,17175,80,17180,74
2016-11-07 13:29:00,13:29:02,13:29:58,44708,44784,17175.0,78,17180.0,79,17180.0,17180.0,17180.0,17180.0,69,69,17175,80,17180,52
2016-11-07 13:30:00,13:30:03,13:30:54,44796,44896,17175.0,83,17180.0,52,17180.0,17180.0,17175.0,17180.0,119,5,17180,11,17185,77
2016-11-07 13:31:00,13:31:02,13:31:54,44910,45081,17180.0,44,17185.0,93,17185.0,17185.0,17175.0,17185.0,186,-10,17180,58,17185,61
2016-11-07 13:32:00,13:32:20,13:32:55,45102,45134,17180.0,64,17185.0,69,17180.0,17185.0,17180.0,17185.0,8,4,17180,76,17185,63
2016-11-07 13:33:00,13:33:00,13:33:53,45137,45209,17180.0,76,17185.0,63,17185.0,17185.0,17180.0,17180.0,23,3,17180,82,17185,68
2016-11-07 13:34:00,13:34:00,13:34:58,45219,45422,17180.0,70,17185.0,77,17185.0,17185.0,17170.0,17175.0,276,-34,17170,81,17175,12
2016-11-07 13:35:00,13:35:00,13:35:51,45428,45574,17170.0,81,17175.0,16,17175.0,17175.0,17170.0,17175.0,180,48,17170,92,17175,14
2016-11-07 13:36:00,13:36:02,13:36:59,45582,45683,17170.0,88,17175.0,23,17175.0,17175.0,17170.0,17175.0,74,-50,17170,119,17175,90
2016-11-07 13:37:00,13:37:26,13:37:59,45720,45852,17170.0,126,17175.0,91,17170.0,17175.0,17165.0,17165.0,230,-110,17165,69,17170,99
2016-11-07 13:38:00,13:38:02,13:38:53,45857,46051,17165.0,71,17170.0,99,17165.0,17170.0,17160.0,17160.0,267,-123,17155,62,17160,55
2016-11-07 13:39:00,13:39:03,13:39:55,46067,46166,17155.0,52,17160.0,77,17155.0,17160.0,17155.0,17160.0,55,-45,17155,122,17160,73
2016-11-07 13:40:00,13:40:07,13:40:33,46178,46311,17155.0,123,17160.0,89,17155.0,17160.0,17155.0,17160.0,256,144,17155,120,17160,18
2016-11-07 13:41:00,13:41:05,13:41:54,46344,46456,17155.0,116,17160.0,157,17160.0,17160.0,17155.0,17155.0,167,-143,17155,103,17160,149
2016-11-07 13:42:00,13:42:04,13:42:59,46462,46578,17155.0,103,17160.0,149,17155.0,17160.0,17155.0,17155.0,186,-152,17150,104,17155,25
2016-11-07 13:43:00,13:43:08,13:43:48,46589,46759,17150.0,108,17155.0,35,17155.0,17160.0,17150.0,17155.0,213,-25,17155,58,17160,138
2016-11-07 13:44:00,13:44:12,13:44:57,46780,47035,17155.0,77,17160.0,142,17155.0,17175.0,17155.0,17170.0,400,166,17170,24,17175,71
2016-11-07 13:45:00,13:45:08,13:45:58,47051,47244,17170.0,49,17175.0,83,17175.0,17180.0,17170.0,17175.0,183,19,17175,12,17180,96
2016-11-07 13:46:00,13:46:01,13:46:53,47252,47353,17175.0,27,17180.0,102,17175.0,17180.0,17175.0,17175.0,99,3,17175,45,17180,85
2016-11-07 13:47:00,13:47:02,13:47:53,47368,47526,17175.0,70,17180.0,77,17175.0,17185.0,17175.0,17180.0,151,-55,17180,29,17185,119
2016-11-07 13:48:00,13:48:00,13:48:53,47533,47683,17180.0,22,17185.0,122,17185.0,17185.0,17180.0,17180.0,164,-72,17180,21,17185,101
2016-11-07 13:49:00,13:49:04,13:49:59,47699,47847,17180.0,41,17185.0,90,17180.0,17185.0,17180.0,17185.0,205,23,17180,86,17185,56
2016-11-07 13:50:00,13:50:00,13:50:50,47848,47990,17180.0,89,17185.0,45,17185.0,17185.0,17175.0,17175.0,140,-114,17175,43,17180,85
2016-11-07 13:51:00,13:51:00,13:51:59,47999,48227,17175.0,46,17180.0,86,17175.0,17175.0,17170.0,17175.0,236,-138,17170,97,17175,18
2016-11-07 13:52:00,13:52:04,13:52:59,48236,48405,17170.0,96,17175.0,35,17175.0,17175.0,17170.0,17170.0,181,-15,17170,17,17175,98
2016-11-07 13:53:00,13:53:00,13:53:59,48408,48565,17170.0,17,17175.0,98,17170.0,17170.0,17165.0,17170.0,284,-88,17170,8,17175,120
2016-11-07 13:54:00,13:54:01,13:54:59,48569,48824,17170.0,8,17175.0,121,17170.0,17175.0,17165.0,17175.0,395,25,17170,66,17175,99
2016-11-07 13:55:00,13:55:00,13:55:58,48827,49093,17170.0,66,17175.0,99,17170.0,17175.0,17165.0,17165.0,350,-140,17165,49,17170,147
2016-11-07 13:56:00,13:56:00,13:56:55,49097,49308,17165.0,51,17170.0,143,17165.0,17175.0,17165.0,17175.0,311,243,17170,115,17175,89
2016-11-07 13:57:00,13:57:00,13:57:58,49316,49595,17170.0,113,17175.0,103,17170.0,17175.0,17170.0,17175.0,489,-3,17170,130,17175,87
2016-11-07 13:58:00,13:58:01,13:58:58,49604,49824,17170.0,127,17175.0,109,17170.0,17180.0,17170.0,17180.0,366,138,17175,84,17180,155
2016-11-07 13:59:00,13:59:00,13:59:59,49829,50348,17175.0,91,17180.0,170,17180.0,17190.0,17170.0,17190.0,1154,656,17185,138,17190,55
2016-11-07 14:00:00,14:00:00,14:00:54,50349,50748,17185.0,136,17190.0,66,17185.0,17190.0,17180.0,17190.0,1046,274,17185,197,17190,60
2016-11-07 14:01:00,14:01:00,14:01:54,50758,51120,17185.0,199,17190.0,88,17190.0,17195.0,17185.0,17185.0,893,213,17185,60,17190,99
2016-11-07 14:02:00,14:02:02,14:02:57,51140,51308,17185.0,115,17190.0,152,17185.0,17190.0,17185.0,17190.0,306,46,17185,107,17190,94
2016-11-07 14:03:00,14:03:00,14:03:58,51315,51614,17185.0,116,17190.0,110,17190.0,17195.0,17180.0,17195.0,696,352,17190,160,17195,37
2016-11-07 14:04:00,14:04:00,14:04:59,51620,51901,17190.0,156,17195.0,38,17195.0,17210.0,17195.0,17205.0,551,353,17205,169,17210,105
2016-11-07 14:05:00,14:05:00,14:05:59,51904,52136,17205.0,169,17210.0,105,17205.0,17220.0,17205.0,17215.0,357,103,17215,69,17220,131
2016-11-07 14:06:00,14:06:01,14:06:59,52142,52439,17215.0,79,17220.0,124,17220.0,17220.0,17200.0,17205.0,560,-172,17205,32,17210,129
2016-11-07 14:07:00,14:07:00,14:07:59,52440,52529,17200.0,362,17205.0,21,17205.0,17210.0,17205.0,17210.0,47,43,17205,212,17210,43
2016-11-07 14:08:00,14:08:04,14:08:56,52538,52750,17205.0,219,17210.0,65,17205.0,17210.0,17200.0,17210.0,530,-264,17205,96,17210,86
