,ST,ET,sidx,eidx,bB,bBS,bA,bAS,O,H,L,C,V,OF,eB,eBS,eA,eAS
2016-06-21 08:00:00,08:00:00,08:00:59,1717,2342,15805.0,37,15810.0,12,15810.0,15820.0,15795.0,15795.0,971,-89,15790,43,15795,2
2016-06-21 08:01:00,08:01:00,08:01:56,2346,2771,15790.0,43,15800.0,23,15795.0,15805.0,15785.0,15800.0,414,-55,15800,4,15805,22
2016-06-21 08:02:00,08:02:00,08:02:58,2778,3095,15800.0,10,15805.0,11,15800.0,15805.0,15770.0,15770.0,339,-117,15765,26,15770,3
2016-06-21 08:03:00,08:03:00,08:03:59,3103,3623,15765.0,27,15770.0,25,15765.0,15775.0,15745.0,15775.0,678,-50,15775,20,15780,16
2016-06-21 08:04:00,08:04:00,08:04:56,3626,3950,15775.0,20,15780.0,16,15775.0,15780.0,15770.0,15770.0,295,-177,15770,4,15775,22
2016-06-21 08:05:00,08:05:00,08:05:59,3959,4323,15770.0,11,15775.0,21,15770.0,15770.0,15760.0,15760.0,273,39,15760,2,15765,49
2016-06-21 08:06:00,08:06:00,08:06:58,4328,4735,15760.0,6,15765.0,49,15760.0,15775.0,15755.0,15770.0,446,-150,15765,23,15775,20
2016-06-21 08:07:00,08:07:01,08:07:58,4737,4976,15770.0,10,15775.0,20,15770.0,15780.0,15765.0,15775.0,142,20,15775,2,15780,30
2016-06-21 08:08:00,08:08:01,08:08:51,4987,5559,15775.0,21,15780.0,16,15775.0,15785.0,15745.0,15750.0,759,-592,15750,20,15755,22
2016-06-21 08:09:00,08:09:00,08:09:53,5572,5879,15750.0,11,15755.0,25,15750.0,15770.0,15745.0,15745.0,298,74,15745,5,15750,42
2016-06-21 08:10:00,08:10:01,08:10:59,5885,6190,15745.0,7,15750.0,42,15750.0,15755.0,15745.0,15745.0,260,-60,15745,7,15750,23
2016-06-21 08:11:00,08:11:00,08:11:57,6193,6437,15745.0,7,15750.0,23,15745.0,15750.0,15740.0,15745.0,159,0,15745,7,15750,23
2016-06-21 08:12:00,08:12:00,08:12:57,6446,6683,15745.0,9,15750.0,20,15745.0,15750.0,15735.0,15740.0,200,-47,15740,4,15745,49
2016-06-21 08:13:00,08:13:02,08:13:57,6694,7160,15740.0,19,15745.0,42,15745.0,15745.0,15715.0,15730.0,594,27,15730,42,15735,23
2016-06-21 08:14:00,08:14:02,08:14:55,7172,7382,15730.0,41,15735.0,23,15735.0,15750.0,15735.0,15750.0,205,73,15750,8,15755,24
2016-06-21 08:15:00,08:15:00,08:15:56,7397,7540,15750.0,13,15755.0,25,15755.0,15760.0,15750.0,15760.0,116,-30,15755,32,15760,5
2016-06-21 08:16:00,08:16:01,08:16:35,7556,7653,15755.0,23,15760.0,26,15760.0,15760.0,15755.0,15760.0,63,13,15755,20,15760,20
2016-06-21 08:17:00,08:17:29,08:17:48,7736,7825,15755.0,29,15760.0,13,15755.0,15765.0,15755.0,15760.0,110,-14,15755,23,15760,2
2016-06-21 08:18:00,08:18:00,08:18:58,7845,8212,15755.0,15,15760.0,17,15755.0,15780.0,15755.0,15770.0,484,259,15765,13,15770,17
2016-06-21 08:19:00,08:19:03,08:19:54,8219,8513,15765.0,16,15770.0,19,15765.0,15790.0,15760.0,15785.0,374,212,15780,29,15785,32
2016-06-21 08:20:00,08:20:00,08:20:58,8527,8894,15780.0,32,15785.0,67,15780.0,15805.0,15780.0,15805.0,397,199,15800,61,15810,29
2016-06-21 08:21:00,08:21:00,08:21:56,8897,9109,15800.0,61,15810.0,29,15810.0,15810.0,15800.0,15800.0,152,-70,15795,28,15805,27
2016-06-21 08:22:00,08:22:04,08:22:56,9127,9357,15795.0,16,15800.0,33,15795.0,15800.0,15795.0,15800.0,167,8,15795,37,15800,3
2016-06-21 08:23:00,08:23:01,08:23:46,9369,9506,15800.0,18,15805.0,15,15800.0,15800.0,15795.0,15795.0,72,-22,15790,30,15795,13
2016-06-21 08:24:00,08:24:00,08:24:59,9525,9626,15790.0,33,15795.0,10,15790.0,15800.0,15790.0,15800.0,47,9,15795,40,15805,32
2016-06-21 08:25:00,08:25:00,08:25:58,9629,10025,15795.0,40,15805.0,32,15800.0,15830.0,15800.0,15825.0,387,86,15820,17,15825,17
2016-06-21 08:26:00,08:26:02,08:26:52,10042,10233,15820.0,16,15825.0,22,15825.0,15830.0,15825.0,15825.0,105,51,15825,19,15830,14
2016-06-21 08:27:00,08:27:00,08:27:59,10248,10372,15825.0,12,15830.0,20,15825.0,15825.0,15825.0,15825.0,53,-50,15825,1,15830,37
2016-06-21 08:28:00,08:28:00,08:28:53,10373,10555,15825.0,2,15830.0,36,15825.0,15835.0,15825.0,15835.0,118,52,15830,22,15835,2
2016-06-21 08:29:00,08:29:07,08:29:52,10573,11038,15830.0,23,15835.0,17,15835.0,15870.0,15835.0,15845.0,480,205,15845,5,15850,35
2016-06-21 08:30:00,08:30:00,08:30:59,11057,11307,15845.0,17,15850.0,30,15845.0,15860.0,15845.0,15860.0,173,-8,15855,24,15860,17
2016-06-21 08:31:00,08:31:00,08:31:54,11310,11496,15855.0,24,15860.0,17,15855.0,15855.0,15845.0,15845.0,102,20,15845,15,15850,26
2016-06-21 08:32:00,08:32:05,08:32:59,11515,11668,15845.0,21,15850.0,28,15845.0,15845.0,15835.0,15840.0,133,57,15835,18,15840,4
2016-06-21 08:33:00,08:33:00,08:33:50,11669,11806,15835.0,26,15840.0,10,15835.0,15840.0,15835.0,15835.0,122,28,15835,5,15840,26
2016-06-21 08:34:00,08:34:07,08:34:59,11831,11981,15835.0,4,15840.0,24,15835.0,15845.0,15830.0,15840.0,80,6,15840,10,15845,21
2016-06-21 08:35:00,08:35:00,08:35:51,11984,12117,15840.0,10,15845.0,21,15840.0,15855.0,15840.0,15855.0,81,56,15855,3,15860,18
2016-06-21 08:36:00,08:36:00,08:36:39,12138,12260,15855.0,16,15860.0,11,15855.0,15870.0,15855.0,15870.0,75,47,15865,27,15875,22
2016-06-21 08:37:00,08:37:01,08:37:56,12294,12486,15865.0,14,15870.0,30,15865.0,15875.0,15855.0,15870.0,170,54,15870,7,15875,25
2016-06-21 08:38:00,08:38:05,08:38:56,12502,12685,15870.0,11,15875.0,29,15870.0,15875.0,15870.0,15875.0,145,-5,15875,4,15880,34
2016-06-21 08:39:00,08:39:00,08:39:58,12697,12864,15870.0,21,15875.0,16,15870.0,15875.0,15870.0,15875.0,154,7,15875,10,15880,32
2016-06-21 08:40:00,08:40:32,08:40:55,12916,13085,15875.0,22,15880.0,29,15880.0,15895.0,15880.0,15895.0,172,98,15890,22,15895,12
2016-06-21 08:41:00,08:41:02,08:41:59,13103,13491,15890.0,24,15895.0,5,15895.0,15910.0,15890.0,15905.0,372,121,15900,21,15905,14
2016-06-21 08:42:00,08:42:00,08:42:59,13496,13694,15900.0,22,15905.0,12,15900.0,15920.0,15900.0,15920.0,146,75,15915,18,15920,13
2016-06-21 08:43:00,08:43:01,08:43:59,13698,13977,15915.0,18,15920.0,9,15915.0,15920.0,15895.0,15895.0,271,-56,15895,29,15900,17
2016-06-21 08:44:00,08:44:06,08:44:58,13995,14215,15895.0,33,15900.0,16,15895.0,15895.0,15890.0,15890.0,164,-134,15885,26,15895,46
2016-06-21 08:45:00,08:45:00,08:45:57,14220,14393,15885.0,18,15890.0,17,15890.0,15895.0,15885.0,15890.0,132,-70,15885,37,15895,50
2016-06-21 08:46:00,08:46:02,08:46:54,14398,14553,15890.0,11,15895.0,47,15890.0,15890.0,15880.0,15880.0,148,-72,15880,14,15885,22
2016-06-21 08:47:00,08:47:01,08:47:45,14564,14706,15880.0,15,15885.0,27,15880.0,15880.0,15880.0,15880.0,104,-79,15875,27,15880,12
2016-06-21 08:48:00,08:48:00,08:48:54,14730,14847,15875.0,28,15880.0,17,15875.0,15875.0,15870.0,15870.0,76,-20,15870,10,15875,19
2016-06-21 08:49:00,08:49:02,08:49:58,14852,15033,15870.0,20,15875.0,19,15875.0,15890.0,15875.0,15890.0,131,96,15885,24,15890,32
2016-06-21 08:50:00,08:50:02,08:50:56,15042,15150,15885.0,5,15890.0,48,15890.0,15895.0,15885.0,15895.0,109,61,15890,36,15895,1
2016-06-21 08:51:00,08:51:00,08:51:52,15166,15413,15895.0,6,15900.0,25,15895.0,15905.0,15890.0,15890.0,251,-125,15885,16,15890,16
2016-06-21 08:52:00,08:52:00,08:52:59,15427,15562,15885.0,21,15890.0,21,15885.0,15890.0,15880.0,15885.0,91,-25,15880,30,15885,7
2016-06-21 08:53:00,08:53:00,08:53:56,15565,15732,15880.0,30,15885.0,7,15885.0,15885.0,15870.0,15870.0,80,-53,15865,34,15870,4
2016-06-21 08:54:00,08:54:00,08:54:59,15742,15994,15865.0,16,15870.0,20,15865.0,15890.0,15865.0,15890.0,167,27,15885,32,15895,24
2016-06-21 08:55:00,08:55:01,08:55:58,16003,16234,15885.0,18,15890.0,18,15885.0,15890.0,15870.0,15875.0,199,-127,15870,44,15880,28
2016-06-21 08:56:00,08:56:18,08:56:51,16252,16384,15875.0,44,15880.0,11,15880.0,15890.0,15880.0,15890.0,110,83,15885,33,15890,3
2016-06-21 08:57:00,08:57:00,08:57:50,16398,16494,15885.0,35,15890.0,16,15885.0,15890.0,15885.0,15890.0,60,-27,15885,23,15890,1
2016-06-21 08:58:00,08:58:01,08:58:57,16509,16691,15885.0,24,15890.0,12,15890.0,15890.0,15880.0,15890.0,132,-54,15890,12,15895,20
2016-06-21 08:59:00,08:59:06,08:59:55,16707,16884,15890.0,26,15895.0,4,15895.0,15900.0,15885.0,15890.0,121,-26,15885,23,15890,3
2016-06-21 09:00:00,09:00:00,09:00:44,16895,17003,15885.0,26,15890.0,8,15885.0,15890.0,15885.0,15890.0,75,-26,15890,22,15895,49
2016-06-21 09:01:00,09:01:10,09:01:19,17032,17060,15890.0,8,15895.0,75,15890.0,15890.0,15885.0,15885.0,20,-18,15885,4,15890,31
2016-06-21 09:02:00,09:02:09,09:02:59,17123,17190,15885.0,22,15890.0,32,15890.0,15895.0,15890.0,15895.0,105,103,15890,34,15895,6
2016-06-21 09:03:00,09:03:00,09:03:55,17191,17392,15895.0,6,15900.0,20,15895.0,15895.0,15880.0,15890.0,162,47,15885,46,15895,32
2016-06-21 09:04:00,09:04:16,09:04:43,17418,17483,15885.0,45,15895.0,31,15890.0,15890.0,15890.0,15890.0,30,-2,15890,11,15895,21
2016-06-21 09:05:00,09:05:00,09:05:47,17503,17604,15890.0,26,15895.0,6,15895.0,15900.0,15895.0,15895.0,57,28,15895,11,15900,33
2016-06-21 09:06:00,09:06:00,09:06:59,17627,17905,15895.0,17,15900.0,32,15895.0,15910.0,15895.0,15905.0,230,-46,15905,10,15910,24
2016-06-21 09:07:00,09:07:09,09:07:54,17928,18032,15905.0,10,15910.0,27,15905.0,15910.0,15905.0,15905.0,47,-9,15905,1,15910,21
2016-06-21 09:08:00,09:08:10,09:08:56,18054,18142,15905.0,8,15910.0,23,15905.0,15915.0,15905.0,15915.0,78,46,15915,10,15920,20
2016-06-21 09:09:00,09:09:05,09:09:59,18156,18314,15915.0,4,15920.0,26,15915.0,15925.0,15915.0,15920.0,108,38,15915,20,15920,8
2016-06-21 09:10:00,09:10:01,09:10:59,18325,18455,15915.0,9,15920.0,21,15920.0,15925.0,15920.0,15925.0,140,54,15920,62,15930,63
2016-06-21 09:11:00,09:11:01,09:11:59,18459,18594,15920.0,63,15930.0,63,15925.0,15930.0,15925.0,15930.0,88,28,15925,44,15930,20
2016-06-21 09:12:00,09:12:02,09:12:56,18598,18737,15925.0,41,15930.0,20,15930.0,15930.0,15925.0,15925.0,97,17,15920,60,15930,50
2016-06-21 09:13:00,09:13:04,09:13:57,18741,18841,15920.0,59,15930.0,50,15925.0,15930.0,15925.0,15925.0,97,85,15920,37,15930,52
2016-06-21 09:14:00,09:14:12,09:14:47,18847,18900,15920.0,38,15930.0,51,15925.0,15925.0,15925.0,15925.0,42,7,15920,31,15930,42
2016-06-21 09:15:00,09:15:04,09:15:50,18920,19067,15920.0,26,15925.0,11,15920.0,15925.0,15915.0,15925.0,80,-3,15920,40,15925,2
2016-06-21 09:16:00,09:16:15,09:16:55,19082,19203,15920.0,40,15925.0,4,15925.0,15925.0,15920.0,15920.0,103,-42,15920,3,15925,32
2016-06-21 09:17:00,09:17:00,09:17:57,19220,19417,15920.0,24,15925.0,24,15920.0,15920.0,15900.0,15905.0,183,-58,15900,33,15905,16
2016-06-21 09:18:00,09:18:15,09:18:40,19442,19522,15900.0,31,15905.0,16,15900.0,15900.0,15900.0,15900.0,73,-73,15900,24,15905,14
2016-06-21 09:19:00,09:19:03,09:19:58,19556,19635,15900.0,22,15905.0,21,15900.0,15900.0,15900.0,15900.0,8,-8,15900,24,15905,33
2016-06-21 09:20:00,09:20:28,09:20:44,19682,19763,15900.0,31,15905.0,33,15900.0,15900.0,15895.0,15895.0,58,-46,15895,7,15900,27
2016-06-21 09:21:00,09:21:09,09:21:59,19797,19959,15895.0,27,15900.0,20,15900.0,15905.0,15895.0,15895.0,143,3,15890,46,15900,58
2016-06-21 09:22:00,09:22:06,09:22:40,19970,20069,15890.0,46,15900.0,59,15895.0,15905.0,15895.0,15905.0,94,23,15905,15,15910,52
2016-06-21 09:23:00,09:23:05,09:23:52,20096,20188,15905.0,7,15910.0,42,15905.0,15905.0,15900.0,15900.0,50,-28,15895,28,15900,13
2016-06-21 09:24:00,09:24:02,09:24:58,20214,20379,15895.0,25,15900.0,20,15900.0,15900.0,15900.0,15900.0,72,14,15895,25,15900,16
2016-06-21 09:25:00,09:25:03,09:25:58,20391,20504,15895.0,19,15900.0,20,15895.0,15915.0,15895.0,15915.0,69,49,15915,8,15920,25
2016-06-21 09:26:00,09:26:00,09:26:32,20512,20612,15915.0,29,15920.0,16,15920.0,15925.0,15920.0,15925.0,73,5,15925,9,15930,27
2016-06-21 09:27:00,09:27:01,09:27:51,20658,20806,15925.0,13,15930.0,33,15925.0,15925.0,15920.0,15925.0,63,-31,15920,23,15925,22
2016-06-21 09:28:00,09:28:00,09:28:37,20823,20896,15920.0,14,15925.0,26,15920.0,15930.0,15920.0,15930.0,33,9,15925,29,15930,18
2016-06-21 09:29:00,09:29:01,09:29:35,20914,21009,15925.0,25,15930.0,29,15930.0,15930.0,15920.0,15920.0,61,-59,15915,38,15925,32
2016-06-21 09:30:00,09:30:00,09:30:44,21034,21228,15920.0,18,15925.0,31,15920.0,15930.0,15920.0,15925.0,130,20,15920,35,15925,21
2016-06-21 09:31:00,09:31:07,09:31:59,21269,21482,15920.0,34,15925.0,20,15925.0,15930.0,15915.0,15915.0,168,-72,15910,34,15915,2
2016-06-21 09:32:00,09:32:00,09:32:57,21485,21717,15910.0,34,15915.0,2,15915.0,15915.0,15900.0,15905.0,106,-40,15905,21,15910,19
2016-06-21 09:33:00,09:33:01,09:33:49,21723,21852,15905.0,20,15910.0,18,15910.0,15915.0,15905.0,15905.0,70,-24,15905,4,15910,28
2016-06-21 09:34:00,09:34:37,09:34:49,21914,21952,15905.0,35,15910.0,13,15910.0,15915.0,15910.0,15915.0,34,34,15910,38,15915,18
2016-06-21 09:35:00,09:35:02,09:35:56,21976,22107,15910.0,41,15915.0,16,15915.0,15920.0,15915.0,15915.0,73,13,15915,9,15920,24
2016-06-21 09:36:00,09:36:05,09:36:51,22133,22357,15915.0,20,15920.0,8,15920.0,15935.0,15920.0,15925.0,133,-22,15920,38,15930,71
2016-06-21 09:37:00,09:37:06,09:37:58,22366,22469,15925.0,10,15930.0,71,15930.0,15930.0,15920.0,15920.0,54,3,15920,15,15925,21
2016-06-21 09:38:00,09:38:03,09:38:21,22484,22543,15920.0,14,15925.0,23,15925.0,15925.0,15920.0,15920.0,29,1,15915,36,15925,32
2016-06-21 09:39:00,09:39:06,09:39:56,22608,22803,15915.0,17,15920.0,23,15915.0,15915.0,15910.0,15915.0,155,-108,15910,43,15915,10
2016-06-21 09:40:00,09:40:01,09:40:52,22814,22989,15910.0,41,15915.0,23,15910.0,15925.0,15910.0,15920.0,158,-49,15920,14,15925,31
2016-06-21 09:41:00,09:41:00,09:41:59,23003,23139,15920.0,8,15925.0,44,15920.0,15930.0,15920.0,15930.0,151,55,15925,43,15930,4
2016-06-21 09:42:00,09:42:03,09:42:59,23146,23355,15925.0,43,15930.0,6,15930.0,15940.0,15930.0,15940.0,181,81,15935,30,15940,9
2016-06-21 09:43:00,09:43:01,09:43:46,23357,23482,15935.0,30,15945.0,36,15940.0,15940.0,15925.0,15925.0,95,-72,15920,28,15925,5
2016-06-21 09:44:00,09:44:17,09:44:57,23520,23649,15920.0,29,15925.0,10,15925.0,15930.0,15925.0,15930.0,103,-7,15925,29,15935,33
2016-06-21 09:45:00,09:45:00,09:45:50,23656,23900,15930.0,15,15935.0,22,15930.0,15950.0,15930.0,15945.0,165,72,15940,22,15950,28
2016-06-21 09:46:00,09:46:00,09:46:59,23915,24107,15940.0,23,15945.0,17,15945.0,15950.0,15940.0,15945.0,104,-24,15945,2,15950,31
2016-06-21 09:47:00,09:47:00,09:47:55,24108,24206,15945.0,6,15950.0,26,15945.0,15945.0,15945.0,15945.0,53,0,15940,26,15945,2
2016-06-21 09:48:00,09:48:03,09:48:51,24221,24309,15940.0,27,15945.0,3,15945.0,15945.0,15945.0,15945.0,26,-9,15945,6,15950,24
2016-06-21 09:49:00,09:49:38,09:49:59,24375,24496,15945.0,28,15950.0,13,15945.0,15955.0,15945.0,15955.0,110,-14,15950,31,15955,1
2016-06-21 09:50:00,09:50:00,09:50:52,24498,24699,15950.0,25,15955.0,1,15955.0,15965.0,15955.0,15955.0,177,5,15955,12,15960,21
2016-06-21 09:51:00,09:51:02,09:51:53,24724,24989,15955.0,22,15960.0,13,15960.0,15975.0,15955.0,15970.0,251,100,15965,26,15970,12
2016-06-21 09:52:00,09:52:08,09:52:56,25019,25356,15965.0,24,15970.0,16,15965.0,15990.0,15965.0,15985.0,388,168,15980,26,15985,11
2016-06-21 09:53:00,09:53:04,09:53:59,25376,25700,15980.0,36,15985.0,21,15985.0,15995.0,15985.0,15990.0,314,220,15985,58,15990,2
2016-06-21 09:54:00,09:54:02,09:54:49,25704,25998,15985.0,55,15990.0,2,15990.0,16000.0,15985.0,15990.0,356,-53,15990,48,15995,32
2016-06-21 09:55:00,09:55:00,09:55:59,26017,26234,15990.0,72,15995.0,43,15995.0,16000.0,15995.0,16000.0,255,131,15995,51,16005,68
2016-06-21 09:56:00,09:56:00,09:56:47,26239,26583,15995.0,61,16005.0,67,16000.0,16005.0,16000.0,16005.0,420,106,16000,46,16005,8
2016-06-21 09:57:00,09:57:00,09:57:59,26614,26890,16000.0,42,16005.0,19,16005.0,16015.0,16005.0,16005.0,214,10,16005,6,16010,10
2016-06-21 09:58:00,09:58:00,09:58:56,26892,27097,16005.0,6,16010.0,29,16010.0,16010.0,16000.0,16000.0,99,-17,16000,19,16005,26
2016-06-21 09:59:00,09:59:04,09:59:59,27111,27296,16000.0,16,16005.0,30,16000.0,16015.0,16000.0,16015.0,87,0,16015,11,16020,37
2016-06-21 10:00:00,10:00:00,10:00:59,27299,27600,16015.0,11,16020.0,37,16015.0,16020.0,16010.0,16015.0,284,12,16010,29,16020,24
2016-06-21 10:01:00,10:01:00,10:01:49,27605,27773,16010.0,30,16015.0,18,16015.0,16020.0,16010.0,16015.0,111,47,16010,29,16015,8
2016-06-21 10:02:00,10:02:00,10:02:59,27794,28017,16010.0,19,16015.0,28,16010.0,16020.0,16010.0,16010.0,160,-18,16005,43,16015,42
2016-06-21 10:03:00,10:03:00,10:03:57,28022,28327,16010.0,1,16015.0,43,16010.0,16010.0,15985.0,15995.0,273,-160,15990,13,15995,19
2016-06-21 10:04:00,10:04:03,10:04:56,28347,28745,15990.0,18,15995.0,21,15990.0,15990.0,15975.0,15985.0,404,-82,15985,5,15990,24
2016-06-21 10:05:00,10:05:03,10:05:55,28756,29005,15985.0,25,15990.0,10,15990.0,15990.0,15975.0,15985.0,307,44,15985,2,15990,29
2016-06-21 10:06:00,10:06:00,10:06:59,29016,29262,15985.0,5,15990.0,29,15990.0,16000.0,15985.0,15990.0,192,-18,15985,35,15995,24
2016-06-21 10:07:00,10:07:00,10:07:38,29267,29371,15990.0,14,15995.0,25,15990.0,16000.0,15985.0,16000.0,64,-6,15995,11,16000,22
2016-06-21 10:08:00,10:08:00,10:08:57,29384,29632,15995.0,6,16000.0,33,15995.0,16000.0,15985.0,15985.0,207,10,15985,39,15990,18
2016-06-21 10:09:00,10:09:01,10:09:35,29641,29715,15985.0,39,15990.0,20,15990.0,15990.0,15985.0,15990.0,37,15,15985,42,15990,17
2016-06-21 10:10:00,10:10:04,10:10:40,29749,29875,15985.0,35,15990.0,26,15990.0,15990.0,15980.0,15980.0,101,-26,15975,28,15980,10
2016-06-21 10:11:00,10:11:02,10:11:53,29908,30042,15975.0,23,15980.0,30,15980.0,15990.0,15980.0,15980.0,93,-3,15980,6,15985,37
2016-06-21 10:12:00,10:12:03,10:12:54,30054,30200,15980.0,33,15985.0,24,15985.0,15995.0,15985.0,15990.0,77,63,15985,32,15990,13
2016-06-21 10:13:00,10:13:05,10:13:40,30206,30312,15985.0,32,15990.0,10,15990.0,15995.0,15985.0,15990.0,63,18,15985,39,15995,26
2016-06-21 10:14:00,10:14:09,10:14:58,30354,30474,15985.0,24,15990.0,27,15985.0,15990.0,15985.0,15985.0,102,-62,15980,27,15990,28
2016-06-21 10:15:00,10:15:03,10:15:53,30477,30673,15980.0,32,15990.0,30,15985.0,15985.0,15970.0,15975.0,146,-53,15970,19,15980,33
2016-06-21 10:16:00,10:16:05,10:16:55,30687,30879,15970.0,17,15975.0,84,15970.0,15975.0,15970.0,15970.0,176,32,15970,10,15975,35
2016-06-21 10:17:00,10:17:02,10:17:45,30893,31011,15970.0,12,15975.0,35,15970.0,15975.0,15970.0,15970.0,43,-3,15965,20,15970,54
2016-06-21 10:18:00,10:18:38,10:18:58,31057,31115,15965.0,19,15970.0,59,15970.0,15970.0,15960.0,15970.0,79,32,15970,34,15975,17
2016-06-21 10:19:00,10:19:08,10:19:40,31129,31249,15970.0,38,15975.0,18,15975.0,15990.0,15975.0,15985.0,75,75,15980,26,15985,7
2016-06-21 10:20:00,10:20:05,10:20:38,31279,31346,15980.0,12,15985.0,21,15980.0,15985.0,15980.0,15985.0,27,19,15980,28,15985,8
2016-06-21 10:21:00,10:21:08,10:21:50,31362,31446,15980.0,34,15985.0,8,15985.0,15990.0,15980.0,15980.0,37,5,15975,25,15980,18
2016-06-21 10:22:00,10:22:38,10:22:49,31502,31536,15975.0,12,15980.0,31,15975.0,15980.0,15975.0,15975.0,19,-11,15975,24,15980,20
2016-06-21 10:23:00,10:23:00,10:23:58,31561,31735,15975.0,30,15980.0,19,15980.0,15990.0,15980.0,15985.0,79,25,15980,31,15990,29
2016-06-21 10:24:00,10:24:02,10:24:55,31740,31908,15980.0,32,15985.0,1,15985.0,15990.0,15980.0,15990.0,103,-21,15990,1,15995,7
2016-06-21 10:25:00,10:25:00,10:25:51,31920,32072,15990.0,26,15995.0,25,15995.0,16000.0,15990.0,15995.0,106,-16,15990,11,15995,23
2016-06-21 10:26:00,10:26:09,10:26:55,32097,32207,15990.0,11,15995.0,28,15995.0,15995.0,15990.0,15990.0,45,-5,15985,41,15995,33
2016-06-21 10:27:00,10:27:02,10:27:56,32217,32359,15985.0,37,15990.0,2,15985.0,16000.0,15985.0,16000.0,63,42,16000,5,16005,31
2016-06-21 10:28:00,10:28:00,10:28:59,32362,32533,16000.0,5,16005.0,31,16000.0,16000.0,15995.0,16000.0,118,8,15995,17,16000,15
2016-06-21 10:29:00,10:29:00,10:29:58,32534,32737,15995.0,25,16000.0,13,16000.0,16005.0,15995.0,15995.0,153,63,15995,43,16000,10
2016-06-21 10:30:00,10:30:02,10:30:49,32750,32943,15995.0,42,16000.0,16,16000.0,16005.0,15995.0,15995.0,185,43,15990,34,15995,2
2016-06-21 10:31:00,10:31:06,10:31:06,32956,32956,15990.0,31,15995.0,9,15995.0,15995.0,15995.0,15995.0,1,1,15990,30,16000,36
2016-06-21 10:32:00,10:32:14,10:32:39,33001,33081,15990.0,22,15995.0,20,15990.0,15995.0,15990.0,15995.0,51,-33,15990,16,15995,1
2016-06-21 10:33:00,10:33:03,10:33:55,33093,33185,15990.0,24,15995.0,4,15995.0,16005.0,15995.0,16005.0,63,19,16000,30,16005,1
2016-06-21 10:34:00,10:34:00,10:34:47,33195,33273,16000.0,21,16005.0,19,16000.0,16000.0,15995.0,16000.0,56,6,15995,45,16005,25
2016-06-21 10:35:00,10:35:02,10:35:54,33289,33367,15995.0,42,16000.0,20,15995.0,15995.0,15995.0,15995.0,68,-32,15995,8,16000,27
2016-06-21 10:36:00,10:36:08,10:36:53,33384,33507,15995.0,31,16000.0,13,15995.0,15995.0,15990.0,15990.0,114,-93,15985,32,15990,2
2016-06-21 10:37:00,10:37:13,10:37:56,33531,33637,15985.0,27,15990.0,19,15985.0,15985.0,15980.0,15980.0,99,-63,15975,28,15980,3
2016-06-21 10:38:00,10:38:25,10:38:37,33665,33680,15975.0,27,15980.0,3,15980.0,15980.0,15980.0,15980.0,11,1,15975,27,15980,2
2016-06-21 10:39:00,10:39:05,10:39:57,33699,33817,15975.0,29,15980.0,14,15980.0,15990.0,15980.0,15985.0,97,7,15980,27,15985,9
2016-06-21 10:40:00,10:40:18,10:40:55,33841,33895,15980.0,13,15985.0,24,15980.0,15990.0,15980.0,15990.0,37,-18,15985,6,15990,20
2016-06-21 10:41:00,10:41:05,10:41:18,33900,33930,15985.0,6,15990.0,32,15985.0,15985.0,15980.0,15980.0,11,-9,15975,28,15980,1
2016-06-21 10:42:00,10:42:00,10:42:57,33968,34020,15975.0,27,15980.0,10,15975.0,15985.0,15975.0,15980.0,23,-1,15975,24,15985,21
2016-06-21 10:43:00,10:43:01,10:43:39,34025,34051,15975.0,25,15980.0,1,15980.0,15980.0,15980.0,15980.0,3,3,15975,17,15980,28
2016-06-21 10:44:00,10:44:39,10:44:59,34083,34092,15975.0,18,15980.0,31,15975.0,15975.0,15975.0,15975.0,2,-2,15975,17,15980,28
2016-06-21 10:45:00,10:45:12,10:45:56,34102,34226,15975.0,17,15980.0,34,15975.0,15975.0,15970.0,15970.0,107,-73,15965,21,15970,50
2016-06-21 10:46:00,10:46:10,10:46:51,34244,34334,15965.0,17,15970.0,65,15970.0,15980.0,15970.0,15980.0,119,91,15975,24,15985,22
2016-06-21 10:47:00,10:47:13,10:47:58,34355,34410,15975.0,14,15980.0,18,15975.0,15975.0,15975.0,15975.0,14,-4,15970,26,15975,1
2016-06-21 10:48:00,10:48:00,10:48:47,34414,34484,15970.0,26,15975.0,3,15975.0,15975.0,15975.0,15975.0,23,-5,15975,10,15980,26
2016-06-21 10:49:00,10:49:00,10:49:00,0,0,0.0,0,0.0,0,15975.0,15975.0,15975.0,15975.0,0,0,0,0,0,0
2016-06-21 10:50:00,10:50:43,10:50:43,34561,34569,15975.0,19,15980.0,32,15975.0,15975.0,15975.0,15975.0,19,-19,15970,25,15975,14
2016-06-21 10:51:00,10:51:04,10:51:53,34582,34640,15970.0,18,15975.0,30,15970.0,15975.0,15970.0,15975.0,14,12,15975,8,15980,28
2016-06-21 10:52:00,10:52:53,10:52:53,34694,34694,15975.0,27,15980.0,19,15975.0,15975.0,15975.0,15975.0,1,-1,15975,25,15980,18
2016-06-21 10:53:00,10:53:20,10:53:25,34709,34722,15975.0,11,15980.0,32,15975.0,15975.0,15975.0,15975.0,12,-10,15970,14,15975,17
2016-06-21 10:54:00,10:54:08,10:54:21,34753,34762,15970.0,28,15975.0,8,15970.0,15975.0,15970.0,15975.0,8,6,15975,9,15980,28
2016-06-21 10:55:00,10:55:00,10:55:01,34804,34811,15975.0,9,15980.0,32,15975.0,15975.0,15975.0,15975.0,10,-9,15970,26,15975,2
2016-06-21 10:56:00,10:56:10,10:56:43,34864,34915,15970.0,15,15975.0,16,15970.0,15970.0,15970.0,15970.0,22,-22,15970,24,15975,13
2016-06-21 10:57:00,10:57:31,10:57:41,34964,34996,15970.0,30,15975.0,6,15970.0,15975.0,15970.0,15975.0,22,14,15975,4,15975,10
2016-06-21 10:58:00,10:58:06,10:58:52,35031,35147,15970.0,22,15975.0,9,15970.0,15975.0,15970.0,15975.0,45,-7,15975,16,15980,23
2016-06-21 10:59:00,10:59:02,10:59:59,35160,35284,15975.0,18,15980.0,15,15975.0,15980.0,15975.0,15975.0,72,-48,15970,24,15975,7
2016-06-21 11:00:00,11:00:20,11:00:22,35314,35324,15970.0,25,15975.0,4,15975.0,15975.0,15970.0,15970.0,13,-3,15970,16,15975,15
2016-06-21 11:01:00,11:01:02,11:01:57,35360,35417,15970.0,12,15975.0,18,15970.0,15975.0,15970.0,15975.0,17,-3,15970,26,15975,12
2016-06-21 11:02:00,11:02:01,11:02:38,35423,35472,15970.0,25,15975.0,20,15970.0,15975.0,15970.0,15975.0,16,-4,15970,24,15975,11
2016-06-21 11:03:00,11:03:09,11:03:28,35499,35536,15970.0,25,15975.0,15,15975.0,15975.0,15970.0,15970.0,45,-43,15965,26,15970,11
2016-06-21 11:04:00,11:04:09,11:04:59,35557,35656,15965.0,20,15970.0,29,15970.0,15970.0,15960.0,15960.0,64,-50,15960,16,15965,24
2016-06-21 11:05:00,11:05:00,11:05:47,35662,35810,15960.0,19,15965.0,24,15960.0,15960.0,15955.0,15960.0,107,-71,15960,9,15965,25
2016-06-21 11:06:00,11:06:09,11:06:47,35846,35917,15960.0,30,15965.0,6,15965.0,15970.0,15965.0,15970.0,35,11,15970,10,15975,32
2016-06-21 11:07:00,11:07:08,11:07:40,35933,35992,15970.0,20,15975.0,27,15975.0,15975.0,15975.0,15975.0,38,12,15970,17,15975,20
2016-06-21 11:08:00,11:08:08,11:08:53,36002,36056,15970.0,28,15975.0,17,15975.0,15980.0,15975.0,15975.0,30,-8,15970,26,15975,2
2016-06-21 11:09:00,11:09:01,11:09:40,36065,36096,15975.0,7,15980.0,36,15975.0,15975.0,15975.0,15975.0,7,-5,15970,35,15975,18
2016-06-21 11:10:00,11:10:09,11:10:39,36110,36136,15970.0,36,15975.0,20,15975.0,15980.0,15970.0,15980.0,22,20,15975,15,15980,34
2016-06-21 11:11:00,11:11:09,11:11:10,36154,36157,15975.0,10,15980.0,33,15980.0,15980.0,15980.0,15980.0,3,3,15975,12,15980,29
2016-06-21 11:12:00,11:12:03,11:12:47,36178,36249,15975.0,11,15980.0,28,15975.0,15980.0,15975.0,15980.0,33,15,15975,22,15980,15
2016-06-21 11:13:00,11:13:08,11:13:57,36255,36324,15975.0,28,15980.0,10,15980.0,15985.0,15975.0,15975.0,41,-5,15970,53,15975,8
2016-06-21 11:14:00,11:14:14,11:14:28,36345,36389,15970.0,40,15975.0,10,15975.0,15980.0,15975.0,15980.0,39,21,15980,26,15985,48
2016-06-21 11:15:00,11:15:14,11:15:40,36430,36467,15980.0,24,15985.0,50,15985.0,15985.0,15980.0,15980.0,10,-4,15980,7,15985,60
2016-06-21 11:16:00,11:16:36,11:16:46,36489,36507,15980.0,16,15985.0,62,15980.0,15985.0,15980.0,15985.0,54,52,15985,20,15990,22
2016-06-21 11:17:00,11:17:00,11:17:00,0,0,0.0,0,0.0,0,15985.0,15985.0,15985.0,15985.0,0,0,0,0,0,0
2016-06-21 11:18:00,11:18:24,11:18:25,36593,36606,15985.0,21,15990.0,22,15985.0,15985.0,15985.0,15985.0,18,-18,15985,16,15990,22
2016-06-21 11:19:00,11:19:16,11:19:40,36649,36698,15985.0,24,15990.0,13,15990.0,15990.0,15985.0,15990.0,41,19,15985,27,15990,5
2016-06-21 11:20:00,11:20:33,11:20:58,36725,36784,15985.0,10,15990.0,25,15985.0,15985.0,15980.0,15985.0,41,-21,15985,10,15990,23
2016-06-21 11:21:00,11:21:11,11:21:30,36793,36856,15985.0,9,15990.0,24,15985.0,15985.0,15980.0,15980.0,54,-42,15975,22,15980,15
2016-06-21 11:22:00,11:22:18,11:22:59,36888,37058,15975.0,15,15980.0,29,15975.0,15975.0,15960.0,15975.0,235,-125,15970,26,15980,23
2016-06-21 11:23:00,11:23:00,11:23:08,37061,37100,15970.0,26,15980.0,23,15975.0,15975.0,15970.0,15975.0,47,-12,15975,19,15980,24
2016-06-21 11:24:00,11:24:27,11:24:29,37142,37162,15975.0,34,15980.0,23,15980.0,15980.0,15980.0,15980.0,33,13,15975,27,15980,19
2016-06-21 11:25:00,11:25:10,11:25:57,37197,37262,15975.0,19,15980.0,23,15975.0,15975.0,15975.0,15975.0,19,-15,15970,29,15975,2
2016-06-21 11:26:00,11:26:21,11:26:59,37278,37318,15975.0,6,15980.0,29,15975.0,15975.0,15975.0,15975.0,20,-16,15970,31,15975,2
2016-06-21 11:27:00,11:27:49,11:27:57,37339,37358,15970.0,31,15975.0,3,15975.0,15975.0,15975.0,15975.0,12,-6,15975,10,15980,18
2016-06-21 11:28:00,11:28:26,11:28:57,37369,37420,15975.0,25,15980.0,18,15980.0,15980.0,15975.0,15975.0,35,19,15975,13,15980,24
2016-06-21 11:29:00,11:29:18,11:29:59,37439,37527,15975.0,20,15980.0,17,15980.0,15980.0,15980.0,15980.0,82,54,15975,19,15980,8
2016-06-21 11:30:00,11:30:00,11:30:59,37530,37753,15975.0,19,15980.0,8,15975.0,15985.0,15975.0,15980.0,198,-6,15980,19,15985,25
2016-06-21 11:31:00,11:31:00,11:31:59,37754,37984,15975.0,39,15980.0,2,15985.0,15990.0,15980.0,15980.0,191,-17,15980,24,15985,29
2016-06-21 11:32:00,11:32:21,11:32:57,38006,38110,15980.0,24,15985.0,27,15980.0,15985.0,15980.0,15980.0,109,-69,15975,29,15985,28
2016-06-21 11:33:00,11:33:16,11:33:52,38127,38233,15975.0,12,15980.0,35,15975.0,15975.0,15970.0,15975.0,79,-67,15970,24,15975,10
2016-06-21 11:34:00,11:34:18,11:34:34,38251,38322,15970.0,14,15975.0,22,15970.0,15970.0,15970.0,15970.0,55,-31,15970,1,15975,28
2016-06-21 11:35:00,11:35:00,11:35:57,38357,38913,15965.0,15,15970.0,31,15965.0,15990.0,15950.0,15970.0,723,223,15970,12,15975,20
2016-06-21 11:36:00,11:36:05,11:36:57,38925,39003,15970.0,10,15975.0,32,15970.0,15975.0,15970.0,15975.0,52,-2,15975,7,15980,29
2016-06-21 11:37:00,11:37:08,11:37:58,39025,39140,15975.0,16,15980.0,33,15975.0,15980.0,15960.0,15965.0,82,-22,15965,21,15970,31
2016-06-21 11:38:00,11:38:02,11:38:53,39150,39252,15965.0,14,15970.0,32,15970.0,15970.0,15970.0,15970.0,72,18,15970,7,15975,24
2016-06-21 11:39:00,11:39:22,11:39:58,39275,39330,15970.0,19,15975.0,14,15975.0,15980.0,15975.0,15980.0,20,16,15975,9,15980,31
2016-06-21 11:40:00,11:40:01,11:40:54,39336,39446,15975.0,11,15980.0,29,15975.0,15980.0,15970.0,15975.0,79,-63,15970,24,15975,15
2016-06-21 11:41:00,11:41:03,11:41:50,39454,39529,15970.0,22,15975.0,13,15975.0,15980.0,15975.0,15980.0,50,50,15975,32,15985,31
2016-06-21 11:42:00,11:42:05,11:42:39,39548,39598,15980.0,11,15985.0,29,15980.0,15985.0,15980.0,15985.0,25,7,15980,20,15985,21
2016-06-21 11:43:00,11:43:06,11:43:43,39621,39719,15980.0,36,15985.0,14,15985.0,15990.0,15985.0,15985.0,60,40,15980,26,15990,27
2016-06-21 11:44:00,11:44:00,11:44:59,39731,39807,15980.0,29,15990.0,27,15985.0,15990.0,15985.0,15990.0,23,18,15985,29,15990,9
2016-06-21 11:45:00,11:45:13,11:45:53,39834,39907,15985.0,12,15990.0,18,15985.0,15985.0,15985.0,15985.0,30,0,15985,8,15990,24
2016-06-21 11:46:00,11:46:15,11:46:33,39929,39993,15985.0,13,15990.0,22,15985.0,15985.0,15980.0,15985.0,40,-22,15980,29,15985,3
2016-06-21 11:47:00,11:47:00,11:47:00,0,0,0.0,0,0.0,0,15985.0,15985.0,15985.0,15985.0,0,0,0,0,0,0
2016-06-21 11:48:00,11:48:26,11:48:49,40099,40129,15980.0,33,15985.0,9,15985.0,15990.0,15985.0,15990.0,11,9,15985,26,15990,9
2016-06-21 11:49:00,11:49:28,11:49:28,40166,40166,15985.0,24,15990.0,20,15990.0,15990.0,15990.0,15990.0,1,1,15985,23,15990,18
2016-06-21 11:50:00,11:50:02,11:50:28,40184,40285,15985.0,26,15990.0,16,15990.0,15995.0,15990.0,15995.0,73,53,15990,33,15995,4
2016-06-21 11:51:00,11:51:07,11:51:48,40340,40422,15990.0,19,15995.0,28,15990.0,15990.0,15990.0,15990.0,43,7,15990,24,15995,21
2016-06-21 11:52:00,11:52:00,11:52:21,40441,40496,15990.0,9,15995.0,40,15990.0,15990.0,15990.0,15990.0,33,-32,15990,2,15995,25
2016-06-21 11:53:00,11:53:34,11:53:49,40576,40596,15990.0,41,15995.0,13,15995.0,15995.0,15990.0,15990.0,4,2,15990,28,15995,25
2016-06-21 11:54:00,11:54:49,11:54:49,40659,40659,15990.0,40,15995.0,23,15990.0,15990.0,15990.0,15990.0,1,-1,15990,39,15995,21
2016-06-21 11:55:00,11:55:07,11:55:56,40681,40947,15990.0,33,15995.0,28,15995.0,16015.0,15995.0,16010.0,290,206,16010,13,16015,22
2016-06-21 11:56:00,11:56:03,11:56:51,40963,40999,16010.0,12,16015.0,21,16010.0,16015.0,16010.0,16015.0,3,1,16010,18,16015,18
2016-06-21 11:57:00,11:57:26,11:57:59,41011,41100,16010.0,23,16015.0,27,16010.0,16015.0,16005.0,16005.0,87,-49,16005,3,16010,28
2016-06-21 11:58:00,11:58:00,11:58:45,41105,41209,16005.0,1,16010.0,31,16005.0,16010.0,16005.0,16005.0,80,-4,16000,43,16010,23
2016-06-21 11:59:00,11:59:20,11:59:27,41256,41289,16000.0,18,16005.0,35,16000.0,16000.0,16000.0,16000.0,38,-34,15995,70,16000,5
2016-06-21 12:00:00,12:00:00,12:00:22,41324,41429,15995.0,46,16000.0,42,15995.0,16000.0,15995.0,15995.0,103,-7,15995,18,16000,22
2016-06-21 12:01:00,12:01:31,12:01:40,41480,41508,15995.0,31,16000.0,14,15995.0,16000.0,15995.0,16000.0,30,24,15995,33,16000,13
2016-06-21 12:02:00,12:02:21,12:02:21,41532,41532,15995.0,30,16000.0,12,16000.0,16000.0,16000.0,16000.0,1,1,15995,29,16000,11
2016-06-21 12:03:00,12:03:02,12:03:02,41555,41555,15995.0,8,16000.0,33,15995.0,15995.0,15995.0,15995.0,1,-1,15995,7,16000,34
2016-06-21 12:04:00,12:04:16,12:04:39,41630,41688,15995.0,16,16000.0,33,16000.0,16000.0,15995.0,16000.0,53,49,15995,38,16000,3
2016-06-21 12:05:00,12:05:15,12:05:55,41732,41827,15995.0,26,16000.0,19,15995.0,15995.0,15985.0,15985.0,102,-76,15985,35,15990,27
2016-06-21 12:06:00,12:06:14,12:06:14,41854,41867,15985.0,32,15990.0,23,15990.0,15990.0,15990.0,15990.0,26,26,15985,39,15990,7
2016-06-21 12:07:00,12:07:51,12:07:51,41965,41965,15985.0,30,15990.0,26,15985.0,15985.0,15985.0,15985.0,1,-1,15985,23,15990,33
2016-06-21 12:08:00,12:08:10,12:08:57,41982,42054,15985.0,20,15990.0,34,15985.0,15990.0,15985.0,15985.0,38,2,15985,7,15990,30
2016-06-21 12:09:00,12:09:06,12:09:34,42060,42077,15985.0,5,15990.0,29,15985.0,15985.0,15980.0,15985.0,14,10,15985,15,15990,25
2016-06-21 12:10:00,12:10:17,12:10:51,42120,42223,15985.0,33,15990.0,12,15990.0,16000.0,15990.0,15995.0,127,23,15990,65,15995,6
2016-06-21 12:11:00,12:11:15,12:11:55,42233,42291,15990.0,66,15995.0,9,15995.0,16000.0,15995.0,16000.0,54,52,15995,115,16000,10
2016-06-21 12:12:00,12:12:41,12:12:49,42298,42305,15995.0,119,16000.0,10,16000.0,16000.0,16000.0,16000.0,2,2,15995,119,16000,8
2016-06-21 12:13:00,12:13:29,12:13:59,42314,42364,15995.0,118,16000.0,14,15995.0,16000.0,15995.0,16000.0,51,43,15995,120,16000,6
2016-06-21 12:14:00,12:14:10,12:14:51,42374,42406,15995.0,119,16000.0,6,16000.0,16000.0,16000.0,16000.0,18,18,15995,120,16000,17
2016-06-21 12:15:00,12:15:02,12:15:58,42421,42488,15995.0,118,16000.0,18,16000.0,16000.0,16000.0,16000.0,48,48,15995,131,16000,10
2016-06-21 12:16:00,12:16:00,12:16:56,42491,42668,15995.0,131,16000.0,10,16000.0,16000.0,15990.0,15995.0,333,-189,15990,42,15995,7
2016-06-21 12:17:00,12:17:00,12:17:25,42677,42712,15990.0,40,15995.0,8,15995.0,15995.0,15995.0,15995.0,10,10,15990,41,15995,1
2016-06-21 12:18:00,12:18:00,12:18:40,42751,42792,15990.0,18,15995.0,25,15990.0,15990.0,15985.0,15985.0,32,-23,15980,37,15985,1
2016-06-21 12:19:00,12:19:01,12:19:21,42814,42853,15980.0,37,15985.0,4,15985.0,15985.0,15985.0,15985.0,35,-25,15985,1,15990,35
2016-06-21 12:20:00,12:20:40,12:20:40,42908,42908,15980.0,40,15985.0,9,15980.0,15980.0,15980.0,15980.0,1,-1,15980,38,15985,10
2016-06-21 12:21:00,12:21:07,12:21:52,42916,42989,15980.0,39,15985.0,6,15985.0,15985.0,15985.0,15985.0,54,-6,15980,33,15985,10
2016-06-21 12:22:00,12:22:04,12:22:05,43001,43003,15980.0,33,15985.0,5,15985.0,15985.0,15985.0,15985.0,4,4,15980,23,15985,1
2016-06-21 12:23:00,12:23:03,12:23:24,43039,43078,15980.0,19,15985.0,25,15980.0,15985.0,15980.0,15985.0,14,4,15980,34,15985,4
2016-06-21 12:24:00,12:24:01,12:24:51,43127,43218,15980.0,37,15985.0,13,15985.0,15985.0,15985.0,15985.0,50,26,15980,35,15985,20
2016-06-21 12:25:00,12:25:23,12:25:55,43240,43337,15980.0,20,15985.0,30,15980.0,15980.0,15980.0,15980.0,48,2,15975,36,15985,41
2016-06-21 12:26:00,12:26:00,12:26:00,0,0,0.0,0,0.0,0,15980.0,15980.0,15980.0,15980.0,0,0,0,0,0,0
2016-06-21 12:27:00,12:27:01,12:27:57,43382,43496,15980.0,40,15985.0,21,15980.0,15995.0,15980.0,15990.0,84,70,15990,23,15995,33
2016-06-21 12:28:00,12:28:00,12:28:42,43499,43598,15990.0,23,15995.0,33,15995.0,16000.0,15995.0,15995.0,100,24,15995,9,16000,39
2016-06-21 12:29:00,12:29:29,12:29:47,43625,43635,15995.0,28,16000.0,38,16000.0,16000.0,15995.0,15995.0,12,8,15995,24,16000,30
2016-06-21 12:30:00,12:30:06,12:30:53,43655,43718,15995.0,29,16000.0,27,15995.0,15995.0,15990.0,15990.0,60,-53,15985,20,15990,20
2016-06-21 12:31:00,12:31:26,12:31:59,43748,43834,15985.0,22,15990.0,24,15990.0,15990.0,15990.0,15990.0,57,38,15985,33,15990,2
2016-06-21 12:32:00,12:32:02,12:32:43,43840,43960,15985.0,34,15995.0,73,15990.0,15990.0,15990.0,15990.0,80,-13,15990,7,15995,62
2016-06-21 12:33:00,12:33:09,12:33:55,43975,44069,15990.0,12,15995.0,65,15990.0,15995.0,15990.0,15995.0,66,-8,15995,13,16000,33
2016-06-21 12:34:00,12:34:16,12:34:59,44080,44239,15995.0,28,16000.0,24,16000.0,16015.0,16000.0,16015.0,112,76,16010,28,16015,28
2016-06-21 12:35:00,12:35:00,12:35:58,44242,44528,16010.0,28,16015.0,28,16010.0,16030.0,16005.0,16025.0,273,135,16020,24,16025,25
2016-06-21 12:36:00,12:36:08,12:36:42,44553,44609,16020.0,19,16025.0,31,16025.0,16030.0,16020.0,16020.0,35,-3,16015,25,16020,21
2016-06-21 12:37:00,12:37:15,12:37:55,44662,44725,16015.0,27,16020.0,27,16015.0,16020.0,16010.0,16010.0,48,-44,16010,5,16015,25
2016-06-21 12:38:00,12:38:07,12:38:21,44736,44771,16010.0,15,16015.0,25,16015.0,16015.0,16015.0,16015.0,28,28,16010,28,16015,13
2016-06-21 12:39:00,12:39:07,12:39:23,44812,44868,16010.0,46,16015.0,9,16015.0,16020.0,16015.0,16020.0,59,59,16015,47,16020,6
2016-06-21 12:40:00,12:40:08,12:40:58,44895,44964,16015.0,31,16020.0,24,16020.0,16020.0,16015.0,16015.0,66,-6,16010,42,16015,12
2016-06-21 12:41:00,12:41:32,12:41:49,44990,45022,16010.0,49,16015.0,20,16015.0,16020.0,16015.0,16020.0,19,19,16015,43,16020,9
2016-06-21 12:42:00,12:42:05,12:42:59,45033,45087,16015.0,47,16020.0,9,16020.0,16020.0,16020.0,16020.0,23,3,16020,2,16025,33
2016-06-21 12:43:00,12:43:00,12:43:57,45091,45135,16020.0,5,16025.0,33,16020.0,16025.0,16020.0,16025.0,15,1,16020,13,16025,24
2016-06-21 12:44:00,12:44:31,12:44:58,45181,45322,16020.0,37,16025.0,11,16025.0,16040.0,16025.0,16040.0,140,97,16035,36,16040,4
2016-06-21 12:45:00,12:45:02,12:45:59,45330,45588,16035.0,33,16040.0,7,16040.0,16060.0,16040.0,16050.0,215,107,16045,35,16050,8
2016-06-21 12:46:00,12:46:03,12:46:51,45598,45818,16045.0,22,16050.0,20,16045.0,16065.0,16045.0,16050.0,306,157,16045,27,16050,5
2016-06-21 12:47:00,12:47:03,12:47:43,45840,45953,16045.0,29,16050.0,14,16050.0,16050.0,16050.0,16050.0,68,46,16050,15,16055,34
2016-06-21 12:48:00,12:48:00,12:48:59,45974,46107,16050.0,29,16055.0,14,16055.0,16055.0,16050.0,16055.0,71,17,16050,60,16060,37
2016-06-21 12:49:00,12:49:02,12:49:30,46110,46159,16050.0,60,16060.0,37,16055.0,16055.0,16055.0,16055.0,8,-7,16050,56,16055,14
2016-06-21 12:50:00,12:50:03,12:50:58,46185,46373,16050.0,59,16055.0,11,16055.0,16070.0,16055.0,16070.0,186,106,16065,41,16070,14
2016-06-21 12:51:00,12:51:04,12:51:47,46389,46582,16065.0,42,16070.0,16,16070.0,16075.0,16060.0,16065.0,322,70,16065,8,16070,34
2016-06-21 12:52:00,12:52:05,12:52:59,46617,46693,16065.0,11,16070.0,27,16065.0,16065.0,16060.0,16060.0,46,-26,16060,7,16065,26
2016-06-21 12:53:00,12:53:05,12:53:58,46702,46894,16060.0,15,16065.0,26,16065.0,16085.0,16060.0,16085.0,211,155,16080,14,16085,19
2016-06-21 12:54:00,12:54:00,12:54:38,46898,47032,16080.0,16,16085.0,19,16080.0,16090.0,16080.0,16090.0,116,26,16085,25,16090,16
2016-06-21 12:55:00,12:55:03,12:55:56,47083,47175,16085.0,20,16090.0,28,16090.0,16090.0,16090.0,16090.0,6,6,16085,26,16090,36
2016-06-21 12:56:00,12:56:01,12:56:54,47180,47495,16085.0,26,16090.0,30,16085.0,16100.0,16085.0,16095.0,340,165,16095,16,16100,34
2016-06-21 12:57:00,12:57:02,12:57:59,47504,47677,16095.0,32,16100.0,6,16100.0,16100.0,16095.0,16100.0,128,91,16095,13,16100,24
2016-06-21 12:58:00,12:58:00,12:58:57,47683,47780,16095.0,16,16100.0,15,16100.0,16100.0,16100.0,16100.0,34,28,16095,39,16105,37
2016-06-21 12:59:00,12:59:11,12:59:46,47799,47930,16095.0,17,16100.0,46,16095.0,16095.0,16090.0,16095.0,131,12,16090,71,16100,60
2016-06-21 13:00:00,13:00:00,13:00:55,47948,48284,16090.0,60,16095.0,36,16090.0,16120.0,16090.0,16120.0,409,74,16120,1,16125,72
2016-06-21 13:01:00,13:01:08,13:01:58,48308,48598,16120.0,45,16125.0,73,16125.0,16130.0,16110.0,16110.0,325,-55,16105,25,16110,33
2016-06-21 13:02:00,13:02:00,13:02:28,48604,48707,16105.0,25,16110.0,38,16105.0,16110.0,16105.0,16110.0,64,-16,16110,9,16115,20
2016-06-21 13:03:00,13:03:00,13:03:45,48736,48787,16110.0,27,16115.0,12,16115.0,16115.0,16110.0,16110.0,20,-14,16105,35,16110,13
2016-06-21 13:04:00,13:04:00,13:04:46,48807,48984,16105.0,27,16110.0,40,16105.0,16110.0,16100.0,16110.0,148,-65,16105,14,16110,37
2016-06-21 13:05:00,13:05:04,13:05:59,49013,49254,16105.0,5,16110.0,37,16105.0,16105.0,16100.0,16105.0,210,-23,16100,22,16110,34
2016-06-21 13:06:00,13:06:00,13:06:59,49255,49468,16100.0,29,16105.0,23,16105.0,16110.0,16100.0,16100.0,147,13,16100,20,16105,25
2016-06-21 13:07:00,13:07:15,13:07:59,49492,49629,16100.0,21,16105.0,25,16105.0,16115.0,16105.0,16115.0,115,97,16115,40,16120,42
2016-06-21 13:08:00,13:08:14,13:08:45,49647,49758,16115.0,52,16120.0,39,16120.0,16130.0,16120.0,16125.0,93,1,16125,9,16130,37
2016-06-21 13:09:00,13:09:00,13:09:40,49782,49983,16125.0,32,16130.0,28,16130.0,16130.0,16120.0,16120.0,191,15,16115,71,16125,31
2016-06-21 13:10:00,13:10:01,13:10:55,50004,50122,16115.0,64,16120.0,39,16115.0,16120.0,16115.0,16115.0,164,-63,16115,12,16120,55
2016-06-21 13:11:00,13:11:04,13:11:57,50133,50360,16115.0,29,16120.0,70,16115.0,16140.0,16115.0,16130.0,365,-45,16125,30,16130,12
2016-06-21 13:12:00,13:12:00,13:12:59,50366,50521,16125.0,41,16130.0,26,16130.0,16135.0,16130.0,16130.0,153,17,16130,10,16135,42
2016-06-21 13:13:00,13:13:00,13:13:58,50526,50735,16130.0,23,16135.0,36,16135.0,16135.0,16125.0,16125.0,193,-58,16120,56,16125,6
2016-06-21 13:14:00,13:14:02,13:14:59,50740,50886,16125.0,4,16130.0,41,16125.0,16130.0,16115.0,16115.0,149,-22,16115,31,16120,13
2016-06-21 13:15:00,13:15:00,13:15:58,50887,51072,16115.0,35,16120.0,15,16120.0,16125.0,16115.0,16125.0,142,28,16120,32,16125,3
2016-06-21 13:16:00,13:16:00,13:16:49,51075,51206,16120.0,32,16125.0,3,16125.0,16125.0,16120.0,16125.0,84,7,16120,28,16125,6
2016-06-21 13:17:00,13:17:00,13:17:59,51235,51421,16120.0,26,16125.0,7,16125.0,16125.0,16105.0,16105.0,115,-75,16105,18,16110,14
2016-06-21 13:18:00,13:18:01,13:18:52,51429,51545,16105.0,30,16110.0,7,16110.0,16115.0,16110.0,16115.0,76,41,16115,7,16120,37
2016-06-21 13:19:00,13:19:01,13:19:54,51550,51675,16115.0,9,16120.0,37,16115.0,16120.0,16110.0,16115.0,57,-5,16110,18,16115,25
2016-06-21 13:20:00,13:20:05,13:20:43,51696,51819,16110.0,11,16115.0,37,16110.0,16120.0,16110.0,16115.0,116,-26,16110,38,16120,46
2016-06-21 13:21:00,13:21:12,13:21:52,51856,51999,16115.0,15,16120.0,46,16115.0,16130.0,16115.0,16130.0,149,103,16125,51,16130,7
2016-06-21 13:22:00,13:22:02,13:22:53,52012,52097,16125.0,23,16130.0,30,16130.0,16130.0,16125.0,16125.0,66,-54,16125,14,16130,39
2016-06-21 13:23:00,13:23:05,13:23:46,52120,52200,16125.0,34,16130.0,13,16130.0,16135.0,16130.0,16135.0,48,-8,16130,17,16135,40
2016-06-21 13:24:00,13:24:07,13:24:24,52224,52294,16130.0,31,16135.0,33,16135.0,16135.0,16125.0,16125.0,56,-6,16125,18,16130,26
2016-06-21 13:25:00,13:25:07,13:25:53,52349,52447,16125.0,34,16130.0,21,16130.0,16135.0,16130.0,16130.0,72,40,16130,23,16135,24
2016-06-21 13:26:00,13:26:12,13:26:48,52488,52713,16130.0,21,16135.0,28,16130.0,16130.0,16115.0,16115.0,281,-236,16110,34,16115,7
2016-06-21 13:27:00,13:27:00,13:27:04,52735,52777,16110.0,36,16115.0,21,16110.0,16115.0,16110.0,16115.0,64,-42,16115,11,16120,30
2016-06-21 13:28:00,13:28:02,13:28:41,52837,52924,16115.0,38,16120.0,23,16120.0,16120.0,16115.0,16120.0,46,-2,16120,18,16125,19
2016-06-21 13:29:00,13:29:00,13:29:31,52959,53070,16120.0,25,16125.0,7,16125.0,16125.0,16115.0,16115.0,75,1,16110,38,16115,7
2016-06-21 13:30:00,13:30:03,13:30:59,53132,53343,16110.0,41,16115.0,14,16115.0,16115.0,16110.0,16110.0,132,-24,16110,12,16115,38
2016-06-21 13:31:00,13:31:00,13:31:56,53344,53459,16105.0,50,16110.0,6,16110.0,16110.0,16110.0,16110.0,60,0,16110,7,16115,43
2016-06-21 13:32:00,13:32:02,13:32:55,53479,53623,16110.0,13,16115.0,32,16110.0,16120.0,16110.0,16120.0,65,34,16120,2,16125,28
2016-06-21 13:33:00,13:33:03,13:33:49,53635,53723,16120.0,9,16125.0,38,16120.0,16120.0,16115.0,16115.0,54,-26,16115,1,16120,28
2016-06-21 13:34:00,13:34:19,13:34:46,53761,53863,16115.0,24,16120.0,21,16115.0,16130.0,16115.0,16130.0,70,3,16125,14,16130,29
2016-06-21 13:35:00,13:35:00,13:35:59,53887,54103,16125.0,26,16130.0,23,16130.0,16145.0,16125.0,16145.0,190,60,16145,5,16150,31
2016-06-21 13:36:00,13:36:00,13:36:29,54105,54260,16145.0,5,16150.0,38,16150.0,16150.0,16140.0,16140.0,266,-100,16140,38,16145,37
2016-06-21 13:37:00,13:37:00,13:37:57,54293,54412,16140.0,53,16145.0,16,16145.0,16150.0,16140.0,16150.0,132,115,16145,23,16150,31
2016-06-21 13:38:00,13:38:00,13:38:57,54419,54556,16145.0,21,16150.0,40,16150.0,16150.0,16145.0,16145.0,110,-14,16140,26,16145,11
2016-06-21 13:39:00,13:39:13,13:39:51,54573,54717,16140.0,28,16145.0,16,16145.0,16145.0,16135.0,16135.0,145,-69,16135,18,16140,35
2016-06-21 13:40:00,13:40:00,13:40:55,54738,54937,16135.0,25,16140.0,42,16140.0,16145.0,16140.0,16145.0,182,136,16140,47,16145,9
2016-06-21 13:41:00,13:41:00,13:41:58,54945,55188,16140.0,47,16145.0,10,16145.0,16160.0,16145.0,16160.0,279,151,16155,33,16160,9
2016-06-21 13:42:00,13:42:01,13:42:58,55194,55408,16155.0,33,16160.0,17,16160.0,16160.0,16150.0,16150.0,278,-110,16150,1,16155,72
2016-06-21 13:43:00,13:43:00,13:43:53,55415,55534,16150.0,26,16155.0,62,16150.0,16150.0,16145.0,16150.0,72,23,16150,17,16155,33
2016-06-21 13:44:00,13:44:02,13:44:59,55552,55719,16150.0,24,16155.0,34,16155.0,16160.0,16150.0,16155.0,115,42,16155,9,16160,42
2016-06-21 13:45:00,13:45:01,13:45:33,55724,55846,16155.0,15,16160.0,41,16160.0,16160.0,16150.0,16150.0,136,4,16150,14,16155,38
2016-06-21 13:46:00,13:46:00,13:46:44,55884,56055,16150.0,28,16155.0,59,16150.0,16155.0,16150.0,16150.0,143,-103,16145,47,16150,12
2016-06-21 13:47:00,13:47:10,13:47:51,56089,56167,16145.0,27,16150.0,32,16145.0,16145.0,16140.0,16140.0,27,-27,16140,19,16145,58
2016-06-21 13:48:00,13:48:06,13:48:52,56182,56336,16140.0,17,16145.0,74,16140.0,16145.0,16135.0,16145.0,101,36,16145,11,16150,40
2016-06-21 13:49:00,13:49:03,13:49:41,56357,56434,16145.0,24,16150.0,42,16145.0,16150.0,16145.0,16150.0,16,-14,16145,32,16150,30
2016-06-21 13:50:00,13:50:08,13:50:50,56488,56597,16145.0,26,16150.0,44,16150.0,16155.0,16150.0,16155.0,81,67,16150,30,16155,98
2016-06-21 13:51:00,13:51:04,13:51:56,56609,56704,16150.0,34,16155.0,100,16150.0,16155.0,16150.0,16150.0,85,-25,16145,49,16150,17
2016-06-21 13:52:00,13:52:00,13:52:47,56713,56925,16145.0,33,16150.0,33,16150.0,16150.0,16135.0,16135.0,175,-51,16135,47,16140,24
2016-06-21 13:53:00,13:53:19,13:53:29,56968,57031,16135.0,43,16140.0,51,16135.0,16135.0,16135.0,16135.0,74,-14,16135,24,16140,30
2016-06-21 13:54:00,13:54:03,13:54:56,57098,57269,16135.0,34,16140.0,48,16140.0,16140.0,16125.0,16125.0,132,-130,16125,61,16130,41
2016-06-21 13:55:00,13:55:00,13:55:57,57278,57460,16125.0,72,16130.0,32,16130.0,16130.0,16120.0,16125.0,166,-64,16125,7,16130,72
2016-06-21 13:56:00,13:56:06,13:56:54,57485,57668,16125.0,14,16130.0,66,16125.0,16130.0,16120.0,16125.0,129,31,16125,35,16130,72
2016-06-21 13:57:00,13:57:03,13:57:59,57687,57902,16125.0,58,16130.0,71,16130.0,16130.0,16110.0,16115.0,305,-234,16110,49,16115,182
2016-06-21 13:58:00,13:58:01,13:58:59,57907,58189,16110.0,53,16115.0,179,16110.0,16120.0,16110.0,16115.0,411,-65,16115,29,16120,148
2016-06-21 13:59:00,13:59:00,13:59:58,58194,58552,16115.0,40,16120.0,131,16120.0,16120.0,16110.0,16115.0,532,-48,16110,102,16115,71
2016-06-21 14:00:00,14:00:00,14:00:57,58556,59054,16110.0,101,16115.0,71,16115.0,16130.0,16110.0,16125.0,1031,133,16120,119,16130,152
2016-06-21 14:01:00,14:01:00,14:01:54,59061,59215,16125.0,66,16130.0,152,16125.0,16130.0,16125.0,16130.0,211,-88,16125,100,16130,174
2016-06-21 14:02:00,14:02:00,14:02:59,59222,59747,16125.0,100,16130.0,191,16130.0,16145.0,16125.0,16135.0,899,288,16135,66,16140,169
2016-06-21 14:03:00,14:03:00,14:03:58,59754,59880,16135.0,79,16140.0,164,16135.0,16140.0,16135.0,16135.0,126,-8,16135,65,16140,150
2016-06-21 14:04:00,14:04:02,14:04:55,59888,60174,16135.0,72,16140.0,151,16135.0,16150.0,16135.0,16150.0,476,215,16145,96,16150,116
2016-06-21 14:05:00,14:05:00,14:05:59,60181,60342,16145.0,84,16150.0,117,16145.0,16150.0,16145.0,16150.0,140,-4,16145,58,16150,117
2016-06-21 14:06:00,14:06:01,14:06:59,60344,60581,16145.0,64,16150.0,117,16145.0,16155.0,16145.0,16155.0,385,321,16155,33,16160,129
2016-06-21 14:07:00,14:07:00,14:07:57,60584,60828,16155.0,33,16160.0,129,16155.0,16170.0,16150.0,16165.0,345,120,16160,77,16165,37
2016-06-21 14:08:00,14:08:00,14:08:41,60835,61127,16160.0,77,16165.0,35,16165.0,16165.0,16150.0,16155.0,712,-440,16155,18,16160,99
2016-06-21 14:09:00,14:09:00,14:09:59,61162,61384,16155.0,74,16160.0,91,16160.0,16160.0,16140.0,16140.0,451,-190,16140,47,16145,112
