,ST,ET,sidx,eidx,bB,bBS,bA,bAS,O,H,L,C,V,OF,eB,eBS,eA,eAS
2016-09-08 08:00:00,08:00:00,08:00:59,1067,1381,16870.0,16,16875.0,60,16875.0,16875.0,16860.0,16865.0,237,-18,16865,32,16870,65
2016-09-08 08:01:00,08:01:06,08:01:58,1397,1553,16865.0,32,16870.0,85,16865.0,16870.0,16860.0,16870.0,153,43,16865,17,16870,55
2016-09-08 08:02:00,08:02:00,08:02:54,1557,1664,16865.0,17,16870.0,56,16870.0,16870.0,16865.0,16865.0,65,39,16865,72,16870,28
2016-09-08 08:03:00,08:03:00,08:03:59,1670,1887,16865.0,71,16870.0,39,16870.0,16875.0,16860.0,16865.0,229,21,16860,71,16865,4
2016-09-08 08:04:00,08:04:05,08:04:59,1900,1980,16865.0,33,16870.0,85,16865.0,16870.0,16865.0,16865.0,41,19,16865,73,16870,34
2016-09-08 08:05:00,08:05:02,08:05:55,1989,2059,16865.0,63,16870.0,86,16870.0,16870.0,16865.0,16870.0,45,19,16870,27,16875,79
2016-09-08 08:06:00,08:06:03,08:06:53,2063,2158,16870.0,28,16875.0,79,16870.0,16875.0,16865.0,16865.0,137,-25,16865,47,16870,118
2016-09-08 08:07:00,08:07:00,08:07:53,2164,2289,16865.0,46,16870.0,116,16865.0,16865.0,16860.0,16860.0,128,-48,16860,70,16865,41
2016-09-08 08:08:00,08:08:00,08:08:57,2293,2438,16860.0,70,16865.0,44,16865.0,16865.0,16860.0,16865.0,153,7,16865,5,16870,131
2016-09-08 08:09:00,08:09:05,08:09:56,2448,2681,16865.0,5,16870.0,126,16865.0,16865.0,16850.0,16855.0,331,-69,16850,80,16855,5
2016-09-08 08:10:00,08:10:02,08:10:57,2693,2861,16850.0,77,16855.0,38,16850.0,16855.0,16845.0,16845.0,199,-123,16845,73,16850,46
2016-09-08 08:11:00,08:11:00,08:11:54,2867,2969,16845.0,70,16850.0,46,16845.0,16850.0,16845.0,16850.0,132,28,16850,20,16855,49
2016-09-08 08:12:00,08:12:19,08:12:56,2998,3139,16850.0,81,16855.0,54,16850.0,16855.0,16845.0,16845.0,177,-117,16845,9,16850,90
2016-09-08 08:13:00,08:13:04,08:13:37,3145,3254,16845.0,9,16850.0,96,16850.0,16855.0,16850.0,16855.0,119,105,16850,118,16855,9
2016-09-08 08:14:00,08:14:04,08:14:41,3270,3368,16850.0,66,16855.0,43,16855.0,16855.0,16850.0,16850.0,125,-93,16845,33,16850,64
2016-09-08 08:15:00,08:15:02,08:15:57,3398,3489,16845.0,77,16850.0,67,16850.0,16855.0,16850.0,16855.0,62,38,16855,13,16860,91
2016-09-08 08:16:00,08:16:00,08:16:56,3493,3590,16855.0,13,16860.0,93,16855.0,16860.0,16850.0,16855.0,83,-23,16855,22,16860,88
2016-09-08 08:17:00,08:17:06,08:17:55,3605,3681,16855.0,9,16860.0,93,16855.0,16860.0,16850.0,16850.0,61,-59,16850,46,16855,53
2016-09-08 08:18:00,08:18:00,08:18:52,3687,3750,16850.0,47,16855.0,94,16850.0,16855.0,16850.0,16850.0,32,-26,16850,61,16855,93
2016-09-08 08:19:00,08:19:02,08:19:59,3760,3916,16850.0,61,16855.0,108,16850.0,16860.0,16850.0,16860.0,248,166,16860,79,16865,26
2016-09-08 08:20:00,08:20:02,08:20:52,3920,4093,16860.0,82,16865.0,26,16865.0,16865.0,16855.0,16860.0,222,22,16860,68,16865,75
2016-09-08 08:21:00,08:21:06,08:21:59,4116,4215,16860.0,63,16865.0,82,16860.0,16865.0,16855.0,16860.0,98,-42,16860,29,16865,90
2016-09-08 08:22:00,08:22:04,08:22:56,4227,4319,16860.0,48,16865.0,81,16860.0,16860.0,16855.0,16855.0,96,-58,16855,20,16855,62
2016-09-08 08:23:00,08:23:03,08:23:58,4321,4441,16855.0,20,16860.0,81,16855.0,16855.0,16845.0,16845.0,209,-133,16850,80,16850,32
2016-09-08 08:24:00,08:24:00,08:24:59,4445,4496,16845.0,90,16850.0,29,16850.0,16855.0,16850.0,16850.0,47,19,16850,83,16855,100
2016-09-08 08:25:00,08:25:06,08:25:59,4501,4615,16850.0,84,16855.0,101,16850.0,16855.0,16850.0,16855.0,156,-22,16855,81,16860,59
2016-09-08 08:26:00,08:26:07,08:26:57,4623,4685,16855.0,77,16860.0,68,16855.0,16855.0,16850.0,16855.0,51,-49,16850,72,16855,51
2016-09-08 08:27:00,08:27:00,08:27:59,4688,4765,16850.0,74,16855.0,50,16850.0,16855.0,16850.0,16850.0,59,3,16850,51,16855,68
2016-09-08 08:28:00,08:28:09,08:28:59,4781,4846,16850.0,68,16855.0,68,16850.0,16855.0,16850.0,16850.0,24,-22,16850,54,16855,75
2016-09-08 08:29:00,08:29:06,08:29:47,4851,4965,16850.0,48,16855.0,71,16850.0,16855.0,16850.0,16850.0,148,-118,16850,3,16855,115
2016-09-08 08:30:00,08:30:27,08:30:48,4998,5042,16850.0,87,16855.0,92,16855.0,16855.0,16855.0,16855.0,50,42,16855,34,16860,80
2016-09-08 08:31:00,08:31:06,08:31:51,5073,5186,16855.0,33,16860.0,104,16855.0,16855.0,16850.0,16850.0,108,-66,16850,10,16855,81
2016-09-08 08:32:00,08:32:06,08:32:06,5200,5201,16850.0,62,16855.0,82,16855.0,16855.0,16855.0,16855.0,3,3,16850,65,16855,81
2016-09-08 08:33:00,08:33:45,08:33:54,5277,5320,16850.0,59,16855.0,76,16850.0,16850.0,16845.0,16845.0,80,-80,16845,4,16850,111
2016-09-08 08:34:00,08:34:05,08:34:49,5330,5382,16845.0,27,16850.0,112,16845.0,16850.0,16840.0,16845.0,62,-34,16845,13,16850,103
2016-09-08 08:35:00,08:35:01,08:35:52,5387,5478,16845.0,18,16850.0,104,16845.0,16845.0,16845.0,16845.0,109,-77,16845,6,16850,141
2016-09-08 08:36:00,08:36:11,08:36:35,5490,5579,16845.0,33,16850.0,141,16845.0,16850.0,16845.0,16845.0,218,36,16840,71,16845,27
2016-09-08 08:37:00,08:37:37,08:37:43,5626,5671,16840.0,74,16845.0,42,16845.0,16845.0,16845.0,16845.0,122,43,16845,10,16850,79
2016-09-08 08:38:00,08:38:01,08:38:50,5689,5791,16845.0,24,16850.0,105,16845.0,16845.0,16840.0,16845.0,133,20,16840,71,16845,106
2016-09-08 08:39:00,08:39:00,08:39:45,5807,5963,16840.0,79,16845.0,105,16840.0,16845.0,16840.0,16845.0,342,114,16845,2,16850,126
2016-09-08 08:40:00,08:40:00,08:40:29,5987,6073,16845.0,35,16850.0,110,16845.0,16845.0,16840.0,16845.0,116,22,16845,80,16850,75
2016-09-08 08:41:00,08:41:35,08:41:59,6106,6120,16845.0,83,16850.0,85,16845.0,16845.0,16845.0,16845.0,8,-8,16845,84,16850,87
2016-09-08 08:42:00,08:42:17,08:42:53,6134,6246,16845.0,91,16850.0,87,16850.0,16850.0,16845.0,16845.0,216,-34,16845,9,16850,116
2016-09-08 08:43:00,08:43:00,08:43:00,0,0,0.0,0,0.0,0,16845.0,16845.0,16845.0,16845.0,0,0,0,0,0,0
2016-09-08 08:44:00,08:44:02,08:44:48,6290,6328,16845.0,26,16850.0,98,16845.0,16845.0,16845.0,16845.0,12,-12,16845,27,16850,92
2016-09-08 08:45:00,08:45:02,08:45:21,6338,6386,16845.0,31,16850.0,94,16845.0,16845.0,16840.0,16840.0,51,-51,16840,25,16845,51
2016-09-08 08:46:00,08:46:17,08:46:58,6423,6493,16840.0,80,16845.0,55,16840.0,16845.0,16840.0,16845.0,134,-52,16840,115,16845,8
2016-09-08 08:47:00,08:47:02,08:47:02,6500,6508,16840.0,113,16845.0,9,16845.0,16845.0,16845.0,16845.0,8,2,16845,5,16850,94
2016-09-08 08:48:00,08:48:12,08:48:36,6536,6561,16845.0,71,16850.0,90,16850.0,16850.0,16845.0,16845.0,42,38,16845,89,16850,45
2016-09-08 08:49:00,08:49:29,08:49:44,6583,6593,16845.0,36,16850.0,60,16845.0,16845.0,16845.0,16845.0,8,-8,16845,24,16850,74
2016-09-08 08:50:00,08:50:30,08:50:48,6600,6686,16845.0,25,16850.0,83,16845.0,16845.0,16840.0,16845.0,134,10,16840,75,16845,22
2016-09-08 08:51:00,08:51:31,08:51:51,6717,6748,16840.0,72,16845.0,32,16845.0,16845.0,16845.0,16845.0,22,6,16840,77,16850,97
2016-09-08 08:52:00,08:52:21,08:52:49,6779,6898,16845.0,24,16850.0,86,16850.0,16850.0,16840.0,16840.0,186,-2,16840,52,16845,38
2016-09-08 08:53:00,08:53:17,08:53:53,6915,6936,16840.0,62,16845.0,27,16845.0,16845.0,16840.0,16840.0,15,11,16840,49,16845,50
2016-09-08 08:54:00,08:54:02,08:54:43,6940,7039,16840.0,49,16845.0,52,16840.0,16840.0,16835.0,16835.0,133,-133,16835,23,16840,80
2016-09-08 08:55:00,08:55:00,08:55:02,7058,7068,16835.0,20,16840.0,80,16835.0,16840.0,16835.0,16840.0,13,-11,16835,31,16840,77
2016-09-08 08:56:00,08:56:06,08:56:38,7094,7129,16835.0,41,16840.0,60,16835.0,16840.0,16835.0,16840.0,93,-91,16835,41,16840,73
2016-09-08 08:57:00,08:57:12,08:57:53,7138,7160,16835.0,43,16840.0,71,16840.0,16840.0,16835.0,16835.0,14,-10,16835,26,16840,74
2016-09-08 08:58:00,08:58:29,08:58:52,7177,7198,16835.0,76,16840.0,62,16835.0,16840.0,16835.0,16835.0,6,-4,16835,66,16840,75
2016-09-08 08:59:00,08:59:35,08:59:43,7217,7271,16835.0,68,16840.0,83,16835.0,16835.0,16835.0,16835.0,107,-67,16830,83,16835,7
2016-09-08 09:00:00,09:00:00,09:00:53,7302,7478,16830.0,62,16835.0,34,16835.0,16835.0,16830.0,16835.0,259,-107,16835,6,16840,123
2016-09-08 09:01:00,09:01:03,09:01:59,7488,7633,16835.0,18,16840.0,123,16835.0,16840.0,16835.0,16835.0,211,91,16835,6,16840,90
2016-09-08 09:02:00,09:02:13,09:02:51,7642,7729,16835.0,27,16840.0,90,16840.0,16840.0,16835.0,16840.0,126,10,16835,9,16840,80
2016-09-08 09:03:00,09:03:00,09:03:15,7735,7747,16835.0,7,16840.0,80,16835.0,16840.0,16835.0,16840.0,11,9,16835,16,16840,69
2016-09-08 09:04:00,09:04:16,09:04:37,7786,7818,16835.0,8,16840.0,75,16835.0,16835.0,16835.0,16835.0,34,22,16830,73,16835,18
2016-09-08 09:05:00,09:05:00,09:05:52,7823,7899,16830.0,73,16835.0,24,16835.0,16835.0,16830.0,16830.0,46,8,16830,50,16835,35
2016-09-08 09:06:00,09:06:00,09:06:34,7900,7975,16830.0,52,16835.0,34,16830.0,16835.0,16825.0,16825.0,70,-68,16825,60,16830,102
2016-09-08 09:07:00,09:07:02,09:07:12,7993,8051,16825.0,110,16830.0,96,16825.0,16830.0,16825.0,16825.0,59,-5,16825,56,16830,84
2016-09-08 09:08:00,09:08:26,09:08:57,8097,8158,16825.0,69,16830.0,88,16830.0,16830.0,16825.0,16830.0,54,36,16825,46,16830,52
2016-09-08 09:09:00,09:09:07,09:09:37,8172,8193,16825.0,62,16830.0,48,16830.0,16830.0,16825.0,16825.0,3,1,16825,66,16830,20
2016-09-08 09:10:00,09:10:46,09:10:47,8217,8235,16825.0,69,16830.0,90,16825.0,16825.0,16825.0,16825.0,35,-35,16825,7,16830,89
2016-09-08 09:11:00,09:11:27,09:11:27,8267,8290,16825.0,71,16830.0,71,16830.0,16830.0,16830.0,16830.0,29,11,16830,63,16835,38
2016-09-08 09:12:00,09:12:00,09:12:00,0,0,0.0,0,0.0,0,16830.0,16830.0,16830.0,16830.0,0,0,0,0,0,0
2016-09-08 09:13:00,09:13:44,09:13:44,8342,8378,16830.0,70,16835.0,44,16835.0,16835.0,16835.0,16835.0,62,62,16830,93,16840,72
2016-09-08 09:14:00,09:14:00,09:14:26,8386,8409,16830.0,95,16840.0,92,16835.0,16840.0,16835.0,16840.0,43,12,16835,40,16840,81
2016-09-08 09:15:00,09:15:20,09:15:58,8429,8533,16835.0,40,16840.0,80,16835.0,16835.0,16830.0,16830.0,173,-89,16830,76,16835,90
2016-09-08 09:16:00,09:16:26,09:16:30,8548,8579,16830.0,82,16835.0,131,16835.0,16835.0,16835.0,16835.0,79,65,16835,2,16835,75
2016-09-08 09:17:00,09:17:00,09:17:00,0,0,0.0,0,0.0,0,16835.0,16835.0,16835.0,16835.0,0,0,0,0,0,0
2016-09-08 09:18:00,09:18:00,09:18:00,0,0,0.0,0,0.0,0,16835.0,16835.0,16835.0,16835.0,0,0,0,0,0,0
2016-09-08 09:19:00,09:19:23,09:19:23,8659,8659,16830.0,167,16835.0,86,16835.0,16835.0,16835.0,16835.0,1,1,16830,171,16835,80
2016-09-08 09:20:00,09:20:30,09:20:55,8694,8771,16830.0,172,16835.0,67,16835.0,16835.0,16830.0,16830.0,160,-94,16830,66,16835,95
2016-09-08 09:21:00,09:21:01,09:21:32,8781,8832,16830.0,59,16835.0,93,16830.0,16835.0,16830.0,16835.0,52,-16,16830,43,16835,120
2016-09-08 09:22:00,09:22:22,09:22:41,8846,8868,16830.0,69,16835.0,120,16830.0,16830.0,16830.0,16830.0,20,-20,16830,32,16835,118
2016-09-08 09:23:00,09:23:19,09:23:50,8897,8951,16830.0,106,16835.0,107,16835.0,16835.0,16830.0,16830.0,91,83,16830,99,16835,43
2016-09-08 09:24:00,09:24:45,09:24:53,8975,8996,16830.0,81,16835.0,92,16835.0,16835.0,16835.0,16835.0,32,18,16835,5,16840,88
2016-09-08 09:25:00,09:25:11,09:25:11,9017,9019,16835.0,5,16840.0,90,16835.0,16835.0,16835.0,16835.0,5,-5,16830,91,16835,19
2016-09-08 09:26:00,09:26:14,09:26:46,9065,9149,16830.0,79,16835.0,81,16830.0,16830.0,16830.0,16830.0,127,-49,16830,38,16835,87
2016-09-08 09:27:00,09:27:34,09:27:35,9178,9189,16830.0,99,16835.0,65,16835.0,16835.0,16835.0,16835.0,33,31,16830,99,16835,18
2016-09-08 09:28:00,09:28:00,09:28:00,0,0,0.0,0,0.0,0,16835.0,16835.0,16835.0,16835.0,0,0,0,0,0,0
2016-09-08 09:29:00,09:29:53,09:29:53,9255,9255,16830.0,86,16835.0,80,16835.0,16835.0,16835.0,16835.0,1,1,16830,84,16835,78
2016-09-08 09:30:00,09:30:00,09:30:45,9260,9392,16830.0,87,16835.0,75,16835.0,16835.0,16830.0,16830.0,168,-48,16825,118,16830,17
2016-09-08 09:31:00,09:31:04,09:31:36,9418,9442,16825.0,58,16830.0,77,16825.0,16830.0,16825.0,16825.0,35,-33,16825,30,16830,79
2016-09-08 09:32:00,09:32:06,09:32:06,9473,9473,16825.0,39,16830.0,72,16825.0,16825.0,16825.0,16825.0,1,-1,16825,37,16830,74
2016-09-08 09:33:00,09:33:00,09:33:57,9516,9676,16825.0,54,16830.0,74,16830.0,16835.0,16830.0,16835.0,144,-26,16830,21,16835,72
2016-09-08 09:34:00,09:34:04,09:34:58,9681,9827,16830.0,13,16835.0,72,16830.0,16830.0,16825.0,16830.0,166,76,16825,97,16830,11
2016-09-08 09:35:00,09:35:08,09:35:48,9840,9877,16825.0,79,16830.0,77,16830.0,16835.0,16830.0,16835.0,15,15,16830,87,16835,74
2016-09-08 09:36:00,09:36:00,09:36:00,0,0,0.0,0,0.0,0,16835.0,16835.0,16835.0,16835.0,0,0,0,0,0,0
2016-09-08 09:37:00,09:37:06,09:37:58,9910,10026,16830.0,87,16835.0,54,16830.0,16835.0,16830.0,16830.0,165,-125,16825,93,16830,5
2016-09-08 09:38:00,09:38:01,09:38:52,10032,10119,16825.0,93,16830.0,6,16830.0,16830.0,16830.0,16830.0,57,11,16830,11,16835,90
2016-09-08 09:39:00,09:39:01,09:39:56,10127,10205,16830.0,10,16835.0,90,16830.0,16835.0,16830.0,16835.0,42,30,16830,74,16835,8
2016-09-08 09:40:00,09:40:24,09:40:58,10242,10286,16830.0,73,16835.0,16,16835.0,16835.0,16835.0,16835.0,37,15,16835,6,16840,86
2016-09-08 09:41:00,09:41:05,09:41:14,10290,10301,16835.0,16,16840.0,87,16840.0,16840.0,16835.0,16835.0,7,-5,16835,7,16840,88
2016-09-08 09:42:00,09:42:01,09:42:37,10333,10372,16835.0,12,16840.0,90,16840.0,16840.0,16835.0,16835.0,14,-12,16830,78,16835,45
2016-09-08 09:43:00,09:43:02,09:43:55,10394,10508,16830.0,80,16835.0,33,16835.0,16835.0,16835.0,16835.0,88,36,16835,8,16840,83
2016-09-08 09:44:00,09:44:05,09:44:39,10517,10548,16835.0,32,16840.0,79,16840.0,16840.0,16840.0,16840.0,39,39,16835,69,16840,64
2016-09-08 09:45:00,09:45:03,09:45:36,10565,10661,16835.0,84,16840.0,48,16840.0,16840.0,16840.0,16840.0,199,13,16840,57,16845,72
2016-09-08 09:46:00,09:46:11,09:46:45,10679,10720,16840.0,50,16845.0,75,16840.0,16840.0,16840.0,16840.0,46,24,16835,79,16840,28
2016-09-08 09:47:00,09:47:53,09:47:53,10748,10748,16835.0,68,16840.0,62,16840.0,16840.0,16840.0,16840.0,1,1,16835,74,16840,61
2016-09-08 09:48:00,09:48:16,09:48:17,10761,10777,16835.0,74,16840.0,48,16840.0,16840.0,16840.0,16840.0,42,6,16835,77,16840,10
2016-09-08 09:49:00,09:49:08,09:49:34,10808,10865,16835.0,72,16840.0,66,16840.0,16840.0,16840.0,16840.0,60,16,16840,51,16845,75
2016-09-08 09:50:00,09:50:35,09:50:56,10892,10912,16840.0,61,16845.0,76,16840.0,16840.0,16840.0,16840.0,3,-3,16840,68,16845,72
2016-09-08 09:51:00,09:51:00,09:51:00,0,0,0.0,0,0.0,0,16840.0,16840.0,16840.0,16840.0,0,0,0,0,0,0
2016-09-08 09:52:00,09:52:13,09:52:56,10950,11080,16840.0,80,16845.0,68,16845.0,16845.0,16845.0,16845.0,130,88,16840,79,16845,38
2016-09-08 09:53:00,09:53:00,09:53:54,11091,11194,16840.0,79,16845.0,22,16840.0,16845.0,16840.0,16840.0,155,-77,16840,54,16845,82
2016-09-08 09:54:00,09:54:04,09:54:51,11205,11284,16840.0,55,16845.0,89,16840.0,16840.0,16840.0,16840.0,151,-95,16835,92,16840,52
2016-09-08 09:55:00,09:55:00,09:55:00,0,0,0.0,0,0.0,0,16840.0,16840.0,16840.0,16840.0,0,0,0,0,0,0
2016-09-08 09:56:00,09:56:14,09:56:14,11312,11312,16835.0,76,16840.0,85,16835.0,16835.0,16835.0,16835.0,1,-1,16835,73,16840,86
2016-09-08 09:57:00,09:57:00,09:57:00,0,0,0.0,0,0.0,0,16835.0,16835.0,16835.0,16835.0,0,0,0,0,0,0
2016-09-08 09:58:00,09:58:06,09:58:51,11364,11447,16835.0,45,16840.0,79,16840.0,16840.0,16835.0,16835.0,94,-12,16835,8,16840,85
2016-09-08 09:59:00,09:59:42,09:59:42,11488,11490,16835.0,60,16840.0,86,16835.0,16835.0,16835.0,16835.0,3,-3,16835,57,16840,87
2016-09-08 10:00:00,10:00:23,10:00:58,11504,11524,16835.0,75,16840.0,62,16835.0,16835.0,16835.0,16835.0,6,-6,16835,60,16840,74
2016-09-08 10:01:00,10:01:54,10:01:54,11547,11553,16835.0,7,16840.0,80,16835.0,16835.0,16835.0,16835.0,9,-9,16830,79,16835,12
2016-09-08 10:02:00,10:02:00,10:02:45,11560,11591,16830.0,75,16835.0,18,16835.0,16835.0,16830.0,16830.0,30,28,16830,72,16835,38
2016-09-08 10:03:00,10:03:00,10:03:00,0,0,0.0,0,0.0,0,16830.0,16830.0,16830.0,16830.0,0,0,0,0,0,0
2016-09-08 10:04:00,10:04:19,10:04:42,11645,11660,16830.0,69,16835.0,35,16830.0,16835.0,16830.0,16835.0,7,5,16830,68,16835,21
2016-09-08 10:05:00,10:05:45,10:05:58,11694,11720,16830.0,78,16835.0,21,16835.0,16835.0,16835.0,16835.0,36,36,16830,83,16835,6
2016-09-08 10:06:00,10:06:03,10:06:03,11729,11731,16830.0,84,16835.0,7,16835.0,16835.0,16835.0,16835.0,5,5,16835,29,16840,77
2016-09-08 10:07:00,10:07:00,10:07:00,0,0,0.0,0,0.0,0,16835.0,16835.0,16835.0,16835.0,0,0,0,0,0,0
2016-09-08 10:08:00,10:08:14,10:08:30,11787,11790,16835.0,84,16840.0,63,16835.0,16840.0,16835.0,16840.0,2,0,16835,83,16840,62
2016-09-08 10:09:00,10:09:02,10:09:56,11800,11894,16835.0,88,16840.0,57,16840.0,16845.0,16840.0,16845.0,113,33,16840,75,16845,18
2016-09-08 10:10:00,10:10:00,10:10:00,0,0,0.0,0,0.0,0,16845.0,16845.0,16845.0,16845.0,0,0,0,0,0,0
2016-09-08 10:11:00,10:11:00,10:11:00,0,0,0.0,0,0.0,0,16845.0,16845.0,16845.0,16845.0,0,0,0,0,0,0
2016-09-08 10:12:00,10:12:00,10:12:00,0,0,0.0,0,0.0,0,16845.0,16845.0,16845.0,16845.0,0,0,0,0,0,0
2016-09-08 10:13:00,10:13:45,10:13:45,11985,11986,16840.0,74,16845.0,86,16845.0,16845.0,16845.0,16845.0,3,3,16840,72,16845,81
2016-09-08 10:14:00,10:14:22,10:14:22,12006,12011,16840.0,76,16845.0,83,16840.0,16840.0,16840.0,16840.0,7,-7,16840,68,16845,81
2016-09-08 10:15:00,10:15:30,10:15:49,12021,12027,16840.0,68,16845.0,82,16840.0,16840.0,16840.0,16840.0,14,-14,16840,49,16845,82
2016-09-08 10:16:00,10:16:06,10:16:47,12034,12060,16840.0,57,16845.0,78,16840.0,16845.0,16835.0,16835.0,50,-48,16835,27,16840,80
2016-09-08 10:17:00,10:17:05,10:17:05,12071,12076,16835.0,36,16840.0,88,16835.0,16835.0,16835.0,16835.0,7,-7,16835,22,16840,90
2016-09-08 10:18:00,10:18:02,10:18:27,12118,12138,16835.0,75,16840.0,97,16835.0,16835.0,16835.0,16835.0,13,-13,16835,17,16840,92
2016-09-08 10:19:00,10:19:16,10:19:21,12155,12189,16835.0,32,16840.0,88,16840.0,16840.0,16840.0,16840.0,46,32,16835,83,16840,69
2016-09-08 10:20:00,10:20:00,10:20:00,0,0,0.0,0,0.0,0,16840.0,16840.0,16840.0,16840.0,0,0,0,0,0,0
2016-09-08 10:21:00,10:21:08,10:21:15,12249,12282,16835.0,72,16840.0,158,16835.0,16835.0,16835.0,16835.0,57,-1,16835,10,16840,154
2016-09-08 10:22:00,10:22:11,10:22:58,12331,12412,16835.0,69,16840.0,146,16835.0,16840.0,16835.0,16835.0,94,-36,16830,82,16835,3
2016-09-08 10:23:00,10:23:24,10:23:35,12418,12436,16835.0,16,16840.0,122,16835.0,16835.0,16835.0,16835.0,72,24,16830,79,16835,8
2016-09-08 10:24:00,10:24:01,10:24:43,12459,12510,16830.0,69,16835.0,15,16835.0,16835.0,16835.0,16835.0,66,24,16830,75,16835,12
2016-09-08 10:25:00,10:25:13,10:25:14,12528,12533,16830.0,81,16835.0,51,16835.0,16835.0,16835.0,16835.0,53,49,16835,10,16840,81
2016-09-08 10:26:00,10:26:01,10:26:01,12563,12567,16835.0,16,16840.0,87,16835.0,16835.0,16835.0,16835.0,15,-15,16830,76,16835,25
2016-09-08 10:27:00,10:27:27,10:27:28,12604,12619,16830.0,74,16835.0,23,16835.0,16835.0,16835.0,16835.0,29,15,16835,2,16840,76
2016-09-08 10:28:00,10:28:00,10:28:00,0,0,0.0,0,0.0,0,16835.0,16835.0,16835.0,16835.0,0,0,0,0,0,0
2016-09-08 10:29:00,10:29:22,10:29:58,12678,12729,16835.0,65,16840.0,81,16840.0,16840.0,16835.0,16840.0,32,26,16835,70,16840,20
2016-09-08 10:30:00,10:30:01,10:30:41,12739,12825,16835.0,71,16840.0,24,16840.0,16840.0,16835.0,16835.0,83,11,16830,77,16835,7
2016-09-08 10:31:00,10:31:20,10:31:24,12846,12855,16835.0,26,16840.0,65,16840.0,16840.0,16840.0,16840.0,30,30,16835,23,16840,44
2016-09-08 10:32:00,10:32:40,10:32:57,12881,12922,16835.0,70,16840.0,42,16840.0,16840.0,16840.0,16840.0,92,76,16840,47,16845,63
2016-09-08 10:33:00,10:33:07,10:33:27,12931,12969,16840.0,46,16845.0,66,16840.0,16840.0,16840.0,16840.0,50,40,16835,67,16840,15
2016-09-08 10:34:00,10:34:06,10:34:58,12990,13277,16835.0,52,16840.0,71,16835.0,16835.0,16815.0,16820.0,494,-236,16815,37,16820,26
2016-09-08 10:35:00,10:35:02,10:35:50,13284,13394,16815.0,27,16820.0,45,16815.0,16820.0,16815.0,16815.0,153,-13,16810,77,16815,86
2016-09-08 10:36:00,10:36:03,10:36:50,13399,13481,16810.0,76,16815.0,87,16815.0,16815.0,16810.0,16810.0,126,-34,16805,71,16815,95
2016-09-08 10:37:00,10:37:02,10:37:51,13493,13643,16805.0,69,16810.0,23,16810.0,16810.0,16800.0,16800.0,222,-56,16800,34,16805,78
2016-09-08 10:38:00,10:38:04,10:38:54,13660,13837,16800.0,87,16805.0,33,16805.0,16810.0,16800.0,16810.0,256,22,16805,25,16810,71
2016-09-08 10:39:00,10:39:00,10:39:19,13844,13879,16805.0,24,16810.0,73,16810.0,16810.0,16810.0,16810.0,26,26,16805,80,16810,15
2016-09-08 10:40:00,10:40:16,10:40:58,13918,13953,16805.0,43,16810.0,51,16810.0,16810.0,16810.0,16810.0,85,85,16805,81,16810,40
2016-09-08 10:41:00,10:41:34,10:41:34,13976,14000,16805.0,80,16810.0,42,16810.0,16810.0,16810.0,16810.0,66,-2,16805,78,16810,43
2016-09-08 10:42:00,10:42:44,10:42:44,14022,14032,16805.0,84,16810.0,38,16810.0,16810.0,16810.0,16810.0,27,27,16810,65,16815,81
2016-09-08 10:43:00,10:43:12,10:43:41,14048,14100,16810.0,72,16815.0,73,16815.0,16815.0,16810.0,16810.0,76,-26,16810,70,16815,42
2016-09-08 10:44:00,10:44:00,10:44:00,0,0,0.0,0,0.0,0,16810.0,16810.0,16810.0,16810.0,0,0,0,0,0,0
2016-09-08 10:45:00,10:45:00,10:45:00,0,0,0.0,0,0.0,0,16810.0,16810.0,16810.0,16810.0,0,0,0,0,0,0
2016-09-08 10:46:00,10:46:37,10:46:55,14142,14178,16810.0,81,16815.0,70,16815.0,16815.0,16810.0,16810.0,45,-5,16810,51,16815,69
2016-09-08 10:47:00,10:47:04,10:47:33,14183,14200,16810.0,59,16815.0,69,16815.0,16815.0,16815.0,16815.0,8,8,16810,58,16815,61
2016-09-08 10:48:00,10:48:08,10:48:53,14226,14265,16810.0,57,16815.0,66,16810.0,16810.0,16810.0,16810.0,46,22,16810,67,16815,45
2016-09-08 10:49:00,10:49:02,10:49:51,14272,14334,16810.0,66,16815.0,48,16810.0,16815.0,16805.0,16810.0,43,-33,16810,28,16815,85
2016-09-08 10:50:00,10:50:00,10:50:00,0,0,0.0,0,0.0,0,16810.0,16810.0,16810.0,16810.0,0,0,0,0,0,0
2016-09-08 10:51:00,10:51:00,10:51:00,0,0,0.0,0,0.0,0,16810.0,16810.0,16810.0,16810.0,0,0,0,0,0,0
2016-09-08 10:52:00,10:52:00,10:52:00,0,0,0.0,0,0.0,0,16810.0,16810.0,16810.0,16810.0,0,0,0,0,0,0
2016-09-08 10:53:00,10:53:39,10:53:39,14390,14410,16810.0,77,16815.0,58,16810.0,16810.0,16810.0,16810.0,88,-88,16810,57,16815,69
2016-09-08 10:54:00,10:54:00,10:54:53,14419,14515,16810.0,49,16815.0,69,16810.0,16810.0,16805.0,16805.0,162,-109,16800,72,16810,75
2016-09-08 10:55:00,10:55:10,10:55:21,14526,14535,16805.0,5,16810.0,77,16805.0,16810.0,16805.0,16810.0,13,5,16805,10,16810,73
2016-09-08 10:56:00,10:56:03,10:56:51,14552,14652,16805.0,7,16810.0,74,16810.0,16810.0,16805.0,16805.0,189,-63,16800,70,16805,7
2016-09-08 10:57:00,10:57:16,10:57:21,14672,14682,16800.0,73,16805.0,3,16805.0,16810.0,16805.0,16810.0,7,7,16805,28,16810,63
2016-09-08 10:58:00,10:58:05,10:58:05,14698,14698,16805.0,34,16810.0,58,16810.0,16810.0,16810.0,16810.0,1,1,16805,35,16810,56
2016-09-08 10:59:00,10:59:21,10:59:21,14718,14722,16805.0,81,16810.0,16,16810.0,16810.0,16810.0,16810.0,14,14,16810,24,16815,80
2016-09-08 11:00:00,11:00:00,11:00:37,14733,14779,16810.0,80,16815.0,71,16810.0,16815.0,16805.0,16805.0,53,-43,16805,8,16810,83
2016-09-08 11:01:00,11:01:38,11:01:38,14793,14793,16805.0,69,16810.0,80,16805.0,16805.0,16805.0,16805.0,1,-1,16805,68,16810,81
2016-09-08 11:02:00,11:02:02,11:02:59,14807,14862,16805.0,15,16810.0,86,16805.0,16805.0,16805.0,16805.0,77,-7,16805,11,16810,90
2016-09-08 11:03:00,11:03:10,11:03:14,14874,14888,16805.0,13,16810.0,91,16805.0,16805.0,16805.0,16805.0,34,6,16805,55,16810,83
2016-09-08 11:04:00,11:04:00,11:04:00,0,0,0.0,0,0.0,0,16805.0,16805.0,16805.0,16805.0,0,0,0,0,0,0
2016-09-08 11:05:00,11:05:02,11:05:02,14908,14908,16805.0,57,16810.0,72,16810.0,16810.0,16810.0,16810.0,2,2,16805,59,16810,73
2016-09-08 11:06:00,11:06:00,11:06:24,14927,14959,16805.0,57,16810.0,79,16810.0,16810.0,16810.0,16810.0,88,88,16805,78,16810,6
2016-09-08 11:07:00,11:07:27,11:07:34,15007,15017,16805.0,78,16810.0,23,16810.0,16810.0,16810.0,16810.0,4,4,16805,76,16810,4
2016-09-08 11:08:00,11:08:53,11:08:53,15042,15058,16810.0,66,16815.0,97,16810.0,16810.0,16810.0,16810.0,62,-62,16805,14,16810,81
2016-09-08 11:09:00,11:09:48,11:09:59,15088,15121,16805.0,28,16810.0,87,16805.0,16805.0,16805.0,16805.0,50,-44,16805,8,16810,92
2016-09-08 11:10:00,11:10:00,11:10:00,0,0,0.0,0,0.0,0,16805.0,16805.0,16805.0,16805.0,0,0,0,0,0,0
2016-09-08 11:11:00,11:11:30,11:11:30,15159,15160,16805.0,34,16810.0,84,16810.0,16810.0,16810.0,16810.0,14,14,16805,36,16810,63
2016-09-08 11:12:00,11:12:00,11:12:00,15166,15183,16805.0,37,16810.0,63,16805.0,16805.0,16805.0,16805.0,33,-33,16805,7,16810,71
2016-09-08 11:13:00,11:13:50,11:13:50,15210,15218,16805.0,23,16810.0,75,16805.0,16805.0,16805.0,16805.0,23,-23,16800,57,16805,83
2016-09-08 11:14:00,11:14:03,11:14:52,15233,15292,16800.0,71,16805.0,13,16805.0,16805.0,16805.0,16805.0,70,12,16800,70,16805,18
2016-09-08 11:15:00,11:15:10,11:15:55,15297,15308,16800.0,71,16805.0,21,16805.0,16810.0,16805.0,16810.0,14,14,16805,20,16810,69
2016-09-08 11:16:00,11:16:03,11:16:55,15312,15418,16805.0,20,16810.0,67,16805.0,16805.0,16800.0,16805.0,150,40,16800,78,16805,8
2016-09-08 11:17:00,11:17:02,11:17:21,15430,15467,16800.0,68,16805.0,34,16800.0,16805.0,16800.0,16805.0,36,-22,16800,69,16805,64
2016-09-08 11:18:00,11:18:21,11:18:28,15477,15505,16800.0,66,16805.0,64,16800.0,16800.0,16800.0,16800.0,80,-46,16800,24,16805,71
2016-09-08 11:19:00,11:19:49,11:19:49,15530,15537,16800.0,30,16805.0,71,16805.0,16805.0,16805.0,16805.0,14,14,16800,82,16805,5
2016-09-08 11:20:00,11:20:05,11:20:48,15548,15631,16800.0,73,16805.0,25,16805.0,16805.0,16800.0,16800.0,93,-23,16795,25,16800,58
2016-09-08 11:21:00,11:21:04,11:21:21,15641,15650,16795.0,28,16800.0,58,16800.0,16800.0,16800.0,16800.0,14,14,16795,30,16800,44
2016-09-08 11:22:00,11:22:04,11:22:08,15664,15666,16795.0,74,16800.0,36,16800.0,16800.0,16800.0,16800.0,22,22,16795,71,16800,16
2016-09-08 11:23:00,11:23:05,11:23:21,15691,15718,16795.0,70,16800.0,19,16800.0,16800.0,16800.0,16800.0,86,-28,16795,28,16800,73
2016-09-08 11:24:00,11:24:03,11:24:59,15738,15776,16795.0,43,16800.0,65,16800.0,16800.0,16795.0,16795.0,21,-11,16795,17,16800,137
2016-09-08 11:25:00,11:25:05,11:25:44,15779,15805,16795.0,17,16800.0,137,16795.0,16800.0,16795.0,16795.0,20,-16,16790,125,16795,22
2016-09-08 11:26:00,11:26:04,11:26:21,15828,15842,16790.0,108,16795.0,34,16795.0,16795.0,16795.0,16795.0,16,8,16795,8,16800,130
2016-09-08 11:27:00,11:27:28,11:27:28,15862,15862,16795.0,16,16800.0,131,16800.0,16800.0,16800.0,16800.0,1,1,16795,22,16800,130
2016-09-08 11:28:00,11:28:21,11:28:34,15876,15882,16795.0,22,16800.0,126,16800.0,16800.0,16800.0,16800.0,6,6,16795,30,16800,117
2016-09-08 11:29:00,11:29:07,11:29:59,15893,15936,16795.0,23,16800.0,119,16795.0,16800.0,16795.0,16800.0,60,58,16800,86,16805,88
2016-09-08 11:30:00,11:30:00,11:30:55,15941,16036,16800.0,72,16805.0,99,16805.0,16805.0,16800.0,16805.0,102,70,16805,47,16810,106
2016-09-08 11:31:00,11:31:18,11:31:54,16046,16091,16805.0,40,16810.0,107,16810.0,16810.0,16810.0,16810.0,61,61,16810,32,16815,81
2016-09-08 11:32:00,11:32:06,11:32:56,16115,16182,16810.0,98,16815.0,26,16810.0,16815.0,16805.0,16815.0,93,29,16810,110,16815,22
2016-09-08 11:33:00,11:33:01,11:33:20,16190,16240,16810.0,131,16815.0,20,16815.0,16815.0,16815.0,16815.0,61,51,16815,11,16820,82
2016-09-08 11:34:00,11:34:22,11:34:52,16287,16451,16815.0,41,16820.0,78,16815.0,16815.0,16810.0,16810.0,275,-129,16805,103,16810,65
2016-09-08 11:35:00,11:35:04,11:35:54,16467,16552,16805.0,100,16810.0,22,16810.0,16810.0,16805.0,16810.0,58,16,16805,83,16810,13
2016-09-08 11:36:00,11:36:08,11:36:45,16565,16644,16805.0,84,16810.0,48,16810.0,16810.0,16805.0,16805.0,106,-22,16805,81,16810,48
2016-09-08 11:37:00,11:37:44,11:37:53,16676,16698,16805.0,83,16810.0,63,16810.0,16810.0,16805.0,16810.0,11,3,16805,57,16810,60
2016-09-08 11:38:00,11:38:00,11:38:23,16702,16754,16805.0,58,16810.0,60,16810.0,16810.0,16810.0,16810.0,84,40,16805,77,16810,71
2016-09-08 11:39:00,11:39:10,11:39:39,16778,16936,16805.0,86,16810.0,103,16805.0,16805.0,16795.0,16795.0,281,-219,16795,83,16800,44
2016-09-08 11:40:00,11:40:58,11:40:58,17002,17036,16795.0,62,16800.0,77,16795.0,16795.0,16795.0,16795.0,117,-117,16795,13,16800,80
2016-09-08 11:41:00,11:41:14,11:41:55,17044,17126,16795.0,19,16800.0,84,16795.0,16800.0,16795.0,16800.0,174,-98,16800,58,16805,40
2016-09-08 11:42:00,11:42:00,11:42:00,0,0,0.0,0,0.0,0,16800.0,16800.0,16800.0,16800.0,0,0,0,0,0,0
2016-09-08 11:43:00,11:43:00,11:43:00,0,0,0.0,0,0.0,0,16800.0,16800.0,16800.0,16800.0,0,0,0,0,0,0
2016-09-08 11:44:00,11:44:22,11:44:59,17186,17260,16800.0,69,16805.0,86,16800.0,16805.0,16800.0,16805.0,106,-2,16805,59,16810,89
2016-09-08 11:45:00,11:45:26,11:45:30,17270,17312,16805.0,42,16810.0,91,16805.0,16805.0,16805.0,16805.0,61,-53,16805,19,16810,87
2016-09-08 11:46:00,11:46:34,11:46:53,17360,17438,16805.0,64,16810.0,91,16810.0,16815.0,16810.0,16810.0,147,57,16805,78,16810,36
2016-09-08 11:47:00,11:47:03,11:47:32,17451,17496,16805.0,71,16810.0,59,16810.0,16810.0,16810.0,16810.0,62,62,16805,53,16810,58
2016-09-08 11:48:00,11:48:18,11:48:33,17532,17551,16805.0,59,16810.0,51,16805.0,16810.0,16805.0,16810.0,5,-3,16805,69,16810,39
2016-09-08 11:49:00,11:49:10,11:49:23,17562,17595,16805.0,69,16810.0,37,16810.0,16810.0,16805.0,16805.0,56,-40,16805,8,16810,57
2016-09-08 11:50:00,11:50:04,11:50:53,17607,17667,16805.0,67,16810.0,27,16810.0,16810.0,16810.0,16810.0,27,-3,16810,55,16815,61
2016-09-08 11:51:00,11:51:42,11:51:56,17691,17706,16810.0,68,16815.0,51,16810.0,16810.0,16810.0,16810.0,10,-10,16810,54,16815,48
2016-09-08 11:52:00,11:52:12,11:52:43,17710,17727,16810.0,63,16815.0,48,16815.0,16815.0,16810.0,16810.0,3,1,16810,66,16815,39
2016-09-08 11:53:00,11:53:00,11:53:00,0,0,0.0,0,0.0,0,16810.0,16810.0,16810.0,16810.0,0,0,0,0,0,0
2016-09-08 11:54:00,11:54:59,11:54:59,17773,17781,16810.0,74,16815.0,39,16815.0,16815.0,16815.0,16815.0,35,35,16815,49,16820,72
2016-09-08 11:55:00,11:55:00,11:55:41,17784,17847,16815.0,49,16820.0,72,16815.0,16815.0,16810.0,16810.0,62,-14,16805,69,16810,10
2016-09-08 11:56:00,11:56:28,11:56:31,17878,17925,16805.0,73,16810.0,45,16810.0,16810.0,16810.0,16810.0,102,34,16805,68,16810,12
2016-09-08 11:57:00,11:57:00,11:57:00,0,0,0.0,0,0.0,0,16810.0,16810.0,16810.0,16810.0,0,0,0,0,0,0
2016-09-08 11:58:00,11:58:09,11:58:09,17966,17987,16805.0,63,16810.0,65,16805.0,16805.0,16805.0,16805.0,52,-28,16800,50,16805,1
2016-09-08 11:59:00,11:59:16,11:59:16,18027,18027,16800.0,44,16805.0,29,16805.0,16805.0,16805.0,16805.0,1,1,16800,43,16805,28
2016-09-08 12:00:00,12:00:00,12:00:30,18038,18091,16800.0,45,16805.0,22,16805.0,16805.0,16800.0,16805.0,37,17,16805,15,16810,63
2016-09-08 12:01:00,12:01:04,12:01:04,18100,18102,16805.0,13,16810.0,65,16805.0,16805.0,16805.0,16805.0,10,-10,16800,43,16805,39
2016-09-08 12:02:00,12:02:18,12:02:53,18131,18217,16800.0,60,16805.0,15,16805.0,16805.0,16800.0,16800.0,113,-71,16800,65,16805,38
2016-09-08 12:03:00,12:03:00,12:03:00,0,0,0.0,0,0.0,0,16800.0,16800.0,16800.0,16800.0,0,0,0,0,0,0
2016-09-08 12:04:00,12:04:00,12:04:00,0,0,0.0,0,0.0,0,16800.0,16800.0,16800.0,16800.0,0,0,0,0,0,0
2016-09-08 12:05:00,12:05:04,12:05:04,18264,18264,16800.0,71,16805.0,34,16800.0,16800.0,16800.0,16800.0,1,-1,16800,77,16805,21
2016-09-08 12:06:00,12:06:28,12:06:59,18310,18378,16800.0,69,16805.0,50,16800.0,16800.0,16800.0,16800.0,88,-88,16800,2,16800,5
2016-09-08 12:07:00,12:07:05,12:07:56,18381,18443,16800.0,4,16805.0,79,16800.0,16800.0,16795.0,16800.0,55,-33,16795,83,16800,1
2016-09-08 12:08:00,12:08:00,12:08:57,18446,18527,16795.0,83,16800.0,1,16800.0,16800.0,16800.0,16800.0,66,-24,16800,35,16805,59
2016-09-08 12:09:00,12:09:04,12:09:04,18532,18541,16800.0,27,16805.0,62,16800.0,16800.0,16800.0,16800.0,20,-20,16795,82,16800,28
2016-09-08 12:10:00,12:10:41,12:10:41,18568,18575,16795.0,94,16800.0,31,16800.0,16800.0,16800.0,16800.0,10,10,16795,97,16800,21
2016-09-08 12:11:00,12:11:40,12:11:40,18596,18596,16795.0,90,16800.0,27,16795.0,16795.0,16795.0,16795.0,1,-1,16795,91,16800,28
2016-09-08 12:12:00,12:12:52,12:12:52,18617,18625,16795.0,52,16800.0,63,16795.0,16795.0,16795.0,16795.0,12,-12,16795,39,16800,63
2016-09-08 12:13:00,12:13:00,12:13:00,0,0,0.0,0,0.0,0,16795.0,16795.0,16795.0,16795.0,0,0,0,0,0,0
2016-09-08 12:14:00,12:14:00,12:14:00,0,0,0.0,0,0.0,0,16795.0,16795.0,16795.0,16795.0,0,0,0,0,0,0
2016-09-08 12:15:00,12:15:48,12:15:50,18698,18740,16795.0,51,16800.0,58,16795.0,16795.0,16795.0,16795.0,80,-60,16790,141,16795,13
2016-09-08 12:16:00,12:16:05,12:16:13,18752,18763,16790.0,141,16795.0,23,16795.0,16795.0,16795.0,16795.0,12,12,16790,142,16795,13
2016-09-08 12:17:00,12:17:13,12:17:51,18786,18881,16790.0,136,16795.0,41,16795.0,16795.0,16785.0,16785.0,190,-172,16785,45,16790,42
2016-09-08 12:18:00,12:18:07,12:18:48,18898,18983,16785.0,51,16790.0,36,16790.0,16790.0,16790.0,16790.0,69,27,16790,44,16795,89
2016-09-08 12:19:00,12:19:00,12:19:00,0,0,0.0,0,0.0,0,16790.0,16790.0,16790.0,16790.0,0,0,0,0,0,0
2016-09-08 12:20:00,12:20:38,12:20:40,19046,19087,16790.0,82,16795.0,61,16795.0,16795.0,16795.0,16795.0,73,57,16790,80,16795,5
2016-09-08 12:21:00,12:21:44,12:21:49,19110,19145,16790.0,69,16795.0,75,16790.0,16790.0,16790.0,16790.0,46,-28,16790,9,16795,86
2016-09-08 12:22:00,12:22:00,12:22:00,0,0,0.0,0,0.0,0,16790.0,16790.0,16790.0,16790.0,0,0,0,0,0,0
2016-09-08 12:23:00,12:23:09,12:23:09,19177,19194,16790.0,73,16795.0,82,16790.0,16790.0,16790.0,16790.0,39,-39,16785,80,16790,34
2016-09-08 12:24:00,12:24:01,12:24:58,19235,19392,16785.0,70,16790.0,63,16785.0,16785.0,16770.0,16770.0,246,-246,16770,12,16775,86
2016-09-08 12:25:00,12:25:01,12:25:53,19399,19675,16770.0,11,16775.0,86,16770.0,16770.0,16755.0,16755.0,436,-288,16755,38,16760,121
2016-09-08 12:26:00,12:26:23,12:26:58,19695,19754,16755.0,42,16760.0,226,16755.0,16755.0,16755.0,16755.0,99,-37,16750,58,16755,24
2016-09-08 12:27:00,12:27:03,12:27:51,19766,19865,16750.0,59,16755.0,47,16750.0,16755.0,16750.0,16755.0,216,-214,16750,62,16755,158
2016-09-08 12:28:00,12:28:09,12:28:51,19878,20138,16750.0,67,16755.0,150,16750.0,16750.0,16740.0,16745.0,543,-295,16740,50,16745,74
2016-09-08 12:29:00,12:29:00,12:29:56,20150,20310,16740.0,46,16745.0,139,16740.0,16745.0,16735.0,16740.0,167,-11,16735,42,16740,139
2016-09-08 12:30:00,12:30:13,12:30:58,20317,20567,16735.0,43,16740.0,139,16740.0,16740.0,16725.0,16730.0,317,-163,16730,8,16735,305
2016-09-08 12:31:00,12:31:06,12:31:56,20580,20857,16730.0,17,16735.0,315,16730.0,16730.0,16710.0,16710.0,370,-338,16710,81,16715,221
2016-09-08 12:32:00,12:32:00,12:32:59,20865,21221,16710.0,67,16715.0,240,16715.0,16715.0,16700.0,16705.0,846,-48,16705,15,16710,220
2016-09-08 12:33:00,12:33:03,12:33:49,21225,21437,16705.0,27,16710.0,220,16705.0,16715.0,16705.0,16715.0,517,110,16710,22,16715,205
2016-09-08 12:34:00,12:34:04,12:34:58,21457,21648,16710.0,49,16715.0,203,16710.0,16715.0,16710.0,16710.0,338,68,16710,64,16715,97
2016-09-08 12:35:00,12:35:05,12:35:59,21659,21959,16710.0,71,16715.0,78,16715.0,16715.0,16705.0,16715.0,537,59,16710,75,16715,15
2016-09-08 12:36:00,12:36:00,12:36:55,21962,22234,16710.0,75,16715.0,15,16715.0,16730.0,16710.0,16725.0,404,337,16725,75,16730,58
2016-09-08 12:37:00,12:37:00,12:37:56,22246,22514,16725.0,80,16730.0,48,16730.0,16740.0,16725.0,16730.0,419,125,16730,57,16735,32
2016-09-08 12:38:00,12:38:02,12:38:57,22526,22690,16730.0,41,16735.0,43,16730.0,16735.0,16725.0,16725.0,208,-100,16725,22,16730,74
2016-09-08 12:39:00,12:39:03,12:39:59,22700,22915,16725.0,29,16730.0,95,16725.0,16730.0,16720.0,16725.0,336,2,16725,28,16730,83
2016-09-08 12:40:00,12:40:04,12:40:59,22918,23037,16725.0,28,16730.0,83,16725.0,16730.0,16720.0,16720.0,115,-94,16715,74,16725,102
2016-09-08 12:41:00,12:41:00,12:41:56,23038,23171,16715.0,49,16720.0,35,16720.0,16720.0,16715.0,16715.0,91,17,16715,63,16720,40
2016-09-08 12:42:00,12:42:00,12:42:10,23173,23188,16715.0,63,16720.0,38,16715.0,16715.0,16715.0,16715.0,8,-8,16715,53,16720,39
2016-09-08 12:43:00,12:43:04,12:43:59,23222,23291,16715.0,71,16720.0,35,16720.0,16725.0,16720.0,16725.0,68,68,16720,85,16725,26
2016-09-08 12:44:00,12:44:17,12:44:51,23306,23365,16720.0,85,16725.0,34,16725.0,16725.0,16720.0,16720.0,96,-26,16720,25,16725,82
2016-09-08 12:45:00,12:45:00,12:45:06,23372,23381,16720.0,30,16725.0,89,16720.0,16720.0,16720.0,16720.0,17,-17,16720,17,16725,87
2016-09-08 12:46:00,12:46:55,12:46:56,23449,23489,16720.0,75,16725.0,104,16725.0,16725.0,16725.0,16725.0,72,66,16725,41,16730,80
2016-09-08 12:47:00,12:47:09,12:47:22,23507,23531,16725.0,21,16730.0,100,16725.0,16725.0,16725.0,16725.0,18,-18,16725,11,16730,94
2016-09-08 12:48:00,12:48:11,12:48:55,23560,23570,16725.0,46,16730.0,88,16725.0,16725.0,16725.0,16725.0,4,-4,16725,31,16730,95
2016-09-08 12:49:00,12:49:01,12:49:38,23573,23651,16725.0,31,16730.0,95,16725.0,16725.0,16725.0,16725.0,70,-46,16725,6,16730,92
2016-09-08 12:50:00,12:50:09,12:50:23,23678,23746,16725.0,32,16730.0,82,16730.0,16735.0,16730.0,16735.0,109,69,16730,66,16735,18
2016-09-08 12:51:00,12:51:01,12:51:50,23760,23847,16730.0,78,16735.0,43,16735.0,16740.0,16735.0,16740.0,110,110,16735,64,16740,13
2016-09-08 12:52:00,12:52:21,12:52:30,23865,23909,16735.0,70,16740.0,8,16740.0,16740.0,16740.0,16740.0,57,-43,16740,29,16745,86
2016-09-08 12:53:00,12:53:09,12:53:09,23938,23956,16740.0,57,16745.0,46,16745.0,16745.0,16745.0,16745.0,46,46,16745,44,16750,39
2016-09-08 12:54:00,12:54:25,12:54:59,24006,24142,16745.0,51,16750.0,36,16745.0,16760.0,16745.0,16755.0,127,75,16755,52,16760,59
2016-09-08 12:55:00,12:55:00,12:55:59,24145,24306,16755.0,55,16760.0,56,16755.0,16755.0,16745.0,16745.0,185,-175,16740,71,16745,2
2016-09-08 12:56:00,12:56:06,12:56:22,24318,24382,16745.0,26,16750.0,70,16745.0,16750.0,16745.0,16750.0,127,73,16745,65,16755,66
2016-09-08 12:57:00,12:57:08,12:57:08,24413,24413,16750.0,59,16755.0,56,16755.0,16755.0,16755.0,16755.0,1,1,16750,55,16755,55
2016-09-08 12:58:00,12:58:01,12:58:34,24426,24480,16750.0,39,16755.0,66,16750.0,16750.0,16745.0,16745.0,37,-37,16745,39,16750,64
2016-09-08 12:59:00,12:59:32,12:59:49,24505,24514,16745.0,44,16750.0,55,16745.0,16745.0,16745.0,16745.0,2,-2,16745,44,16750,53
2016-09-08 13:00:00,13:00:00,13:00:59,24519,24620,16745.0,47,16750.0,53,16750.0,16750.0,16745.0,16745.0,145,-15,16745,55,16750,42
2016-09-08 13:01:00,13:01:09,13:01:59,24626,24655,16745.0,53,16750.0,39,16745.0,16745.0,16745.0,16745.0,4,-4,16745,63,16750,38
2016-09-08 13:02:00,13:02:10,13:02:40,24668,24720,16745.0,78,16750.0,38,16745.0,16750.0,16745.0,16750.0,126,118,16750,53,16755,58
2016-09-08 13:03:00,13:03:00,13:03:41,24735,24770,16750.0,67,16755.0,56,16755.0,16755.0,16750.0,16750.0,20,8,16750,76,16755,43
2016-09-08 13:04:00,13:04:11,13:04:45,24785,24801,16750.0,83,16755.0,43,16750.0,16750.0,16750.0,16750.0,7,-7,16750,79,16755,39
2016-09-08 13:05:00,13:05:00,13:05:58,24805,24859,16750.0,78,16755.0,39,16755.0,16760.0,16750.0,16760.0,35,29,16755,55,16760,31
2016-09-08 13:06:00,13:06:00,13:06:54,24862,25040,16755.0,55,16760.0,31,16760.0,16770.0,16755.0,16770.0,188,116,16765,115,16770,7
2016-09-08 13:07:00,13:07:25,13:07:26,25059,25062,16765.0,114,16770.0,57,16770.0,16770.0,16770.0,16770.0,3,3,16765,112,16770,50
2016-09-08 13:08:00,13:08:12,13:08:56,25086,25226,16765.0,121,16770.0,42,16770.0,16785.0,16770.0,16785.0,182,158,16780,79,16785,56
2016-09-08 13:09:00,13:09:10,13:09:10,25245,25249,16780.0,82,16785.0,65,16785.0,16785.0,16785.0,16785.0,28,28,16780,81,16785,36
2016-09-08 13:10:00,13:10:00,13:10:34,25277,25352,16780.0,83,16785.0,81,16780.0,16780.0,16775.0,16775.0,72,-68,16775,44,16780,99
2016-09-08 13:11:00,13:11:23,13:11:53,25373,25449,16775.0,44,16780.0,95,16775.0,16780.0,16770.0,16775.0,68,-32,16775,33,16780,94
2016-09-08 13:12:00,13:12:35,13:12:59,25464,25602,16775.0,67,16780.0,78,16780.0,16795.0,16780.0,16790.0,252,224,16790,106,16795,44
2016-09-08 13:13:00,13:13:05,13:13:59,25607,25842,16790.0,109,16795.0,41,16795.0,16800.0,16795.0,16795.0,281,75,16795,204,16800,56
2016-09-08 13:14:00,13:14:03,13:14:50,25851,25921,16795.0,205,16800.0,50,16800.0,16800.0,16795.0,16795.0,80,-78,16795,104,16800,70
2016-09-08 13:15:00,13:15:05,13:15:54,25933,26060,16795.0,107,16800.0,73,16795.0,16800.0,16795.0,16800.0,226,-2,16795,104,16800,10
2016-09-08 13:16:00,13:16:33,13:16:33,26101,26101,16795.0,89,16800.0,78,16795.0,16795.0,16795.0,16795.0,5,-5,16795,85,16800,77
2016-09-08 13:17:00,13:17:04,13:17:34,26107,26136,16795.0,86,16800.0,77,16795.0,16795.0,16795.0,16795.0,91,-91,16790,122,16795,23
2016-09-08 13:18:00,13:18:01,13:18:42,26158,26215,16790.0,136,16795.0,56,16790.0,16790.0,16790.0,16790.0,98,-98,16790,19,16795,77
2016-09-08 13:19:00,13:19:15,13:19:19,26245,26248,16790.0,77,16795.0,78,16790.0,16790.0,16790.0,16790.0,2,-2,16790,75,16795,80
2016-09-08 13:20:00,13:20:00,13:20:15,26279,26328,16790.0,82,16795.0,71,16795.0,16795.0,16795.0,16795.0,77,63,16790,80,16795,36
2016-09-08 13:21:00,13:21:54,13:21:54,26384,26384,16790.0,78,16795.0,74,16795.0,16795.0,16795.0,16795.0,2,2,16790,71,16795,73
2016-09-08 13:22:00,13:22:10,13:22:46,26402,26434,16790.0,51,16795.0,82,16790.0,16790.0,16785.0,16785.0,50,-50,16785,84,16790,95
2016-09-08 13:23:00,13:23:04,13:23:04,26436,26436,16785.0,84,16790.0,97,16790.0,16790.0,16790.0,16790.0,2,2,16785,83,16790,95
2016-09-08 13:24:00,13:24:10,13:24:59,26477,26583,16785.0,83,16790.0,101,16785.0,16785.0,16785.0,16785.0,189,-93,16785,35,16790,71
2016-09-08 13:25:00,13:25:10,13:25:48,26605,26677,16785.0,66,16790.0,63,16790.0,16795.0,16790.0,16790.0,114,56,16785,48,16790,72
2016-09-08 13:26:00,13:26:23,13:26:59,26704,26756,16785.0,59,16790.0,71,16790.0,16795.0,16790.0,16790.0,52,48,16790,91,16795,23
2016-09-08 13:27:00,13:27:33,13:27:33,26779,26779,16790.0,87,16795.0,31,16790.0,16790.0,16790.0,16790.0,1,-1,16790,86,16795,38
2016-09-08 13:28:00,13:28:00,13:28:00,0,0,0.0,0,0.0,0,16790.0,16790.0,16790.0,16790.0,0,0,0,0,0,0
2016-09-08 13:29:00,13:29:28,13:29:57,26858,27092,16790.0,84,16795.0,39,16795.0,16810.0,16795.0,16810.0,354,206,16810,35,16815,82
2016-09-08 13:30:00,13:30:52,13:30:55,27138,27168,16810.0,88,16815.0,74,16815.0,16820.0,16815.0,16820.0,34,32,16815,45,16820,78
2016-09-08 13:31:00,13:31:06,13:31:59,27199,27486,16815.0,91,16820.0,67,16820.0,16820.0,16820.0,16820.0,487,211,16815,184,16820,19
2016-09-08 13:32:00,13:32:13,13:32:15,27499,27504,16815.0,183,16820.0,82,16815.0,16815.0,16815.0,16815.0,3,-3,16815,182,16820,83
2016-09-08 13:33:00,13:33:07,13:33:29,27533,27550,16815.0,138,16820.0,94,16820.0,16820.0,16815.0,16815.0,13,-9,16815,130,16820,96
2016-09-08 13:34:00,13:34:01,13:34:51,27574,27648,16815.0,131,16820.0,99,16815.0,16820.0,16815.0,16820.0,108,94,16815,132,16820,66
2016-09-08 13:35:00,13:35:00,13:35:31,27659,27692,16815.0,134,16820.0,65,16820.0,16820.0,16815.0,16815.0,8,-6,16815,126,16820,68
2016-09-08 13:36:00,13:36:03,13:36:27,27722,27843,16815.0,134,16820.0,82,16815.0,16815.0,16815.0,16815.0,237,-97,16810,112,16815,10
2016-09-08 13:37:00,13:37:00,13:37:57,27875,28022,16810.0,113,16815.0,112,16815.0,16825.0,16810.0,16820.0,318,60,16815,127,16820,7
2016-09-08 13:38:00,13:38:00,13:38:38,28033,28053,16815.0,80,16820.0,69,16820.0,16820.0,16815.0,16815.0,18,6,16815,79,16820,66
2016-09-08 13:39:00,13:39:18,13:39:54,28079,28182,16815.0,77,16820.0,68,16815.0,16815.0,16815.0,16815.0,148,-118,16815,35,16820,73
2016-09-08 13:40:00,13:40:19,13:40:53,28222,28272,16815.0,63,16820.0,74,16815.0,16820.0,16815.0,16815.0,44,-40,16815,57,16820,77
2016-09-08 13:41:00,13:41:17,13:41:33,28299,28318,16815.0,75,16820.0,75,16815.0,16815.0,16815.0,16815.0,13,-13,16815,113,16820,98
2016-09-08 13:42:00,13:42:14,13:42:53,28337,28479,16815.0,121,16820.0,104,16815.0,16820.0,16810.0,16810.0,298,-166,16810,45,16815,80
2016-09-08 13:43:00,13:43:00,13:43:59,28496,28663,16810.0,77,16815.0,62,16815.0,16825.0,16815.0,16825.0,213,79,16820,101,16825,13
2016-09-08 13:44:00,13:44:01,13:44:57,28670,28891,16820.0,103,16825.0,3,16825.0,16835.0,16825.0,16835.0,273,9,16830,107,16835,20
2016-09-08 13:45:00,13:45:00,13:45:00,28897,28905,16830.0,107,16835.0,22,16835.0,16835.0,16835.0,16835.0,14,14,16830,105,16835,8
2016-09-08 13:46:00,13:46:13,13:46:59,28969,29165,16830.0,166,16835.0,64,16830.0,16835.0,16825.0,16835.0,304,-142,16835,9,16840,78
2016-09-08 13:47:00,13:47:00,13:47:56,29167,29386,16835.0,9,16840.0,76,16835.0,16835.0,16825.0,16830.0,387,-119,16830,55,16835,32
2016-09-08 13:48:00,13:48:08,13:48:45,29397,29464,16830.0,71,16835.0,63,16835.0,16835.0,16830.0,16835.0,90,50,16830,102,16835,14
2016-09-08 13:49:00,13:49:24,13:49:55,29490,29510,16830.0,108,16835.0,40,16835.0,16835.0,16830.0,16830.0,7,1,16830,108,16835,35
2016-09-08 13:50:00,13:50:00,13:50:33,29517,29581,16830.0,107,16835.0,32,16835.0,16835.0,16830.0,16830.0,56,14,16830,65,16835,43
2016-09-08 13:51:00,13:51:15,13:51:52,29591,29652,16830.0,70,16835.0,44,16830.0,16840.0,16830.0,16840.0,58,46,16835,133,16840,33
2016-09-08 13:52:00,13:52:05,13:52:59,29660,29791,16835.0,134,16840.0,45,16840.0,16850.0,16840.0,16845.0,149,33,16840,109,16845,9
2016-09-08 13:53:00,13:53:00,13:53:56,29794,29988,16840.0,109,16845.0,9,16845.0,16850.0,16845.0,16850.0,219,45,16845,24,16850,90
2016-09-08 13:54:00,13:54:06,13:54:54,30004,30126,16845.0,32,16850.0,98,16850.0,16850.0,16845.0,16850.0,105,-5,16845,85,16850,59
2016-09-08 13:55:00,13:55:00,13:55:57,30130,30304,16845.0,85,16850.0,109,16850.0,16850.0,16845.0,16845.0,234,-50,16845,6,16850,136
2016-09-08 13:56:00,13:56:05,13:56:59,30315,30599,16845.0,11,16850.0,136,16850.0,16850.0,16845.0,16845.0,409,242,16845,60,16850,161
2016-09-08 13:57:00,13:57:00,13:57:50,30603,30698,16845.0,61,16850.0,161,16850.0,16850.0,16840.0,16840.0,38,-14,16840,123,16845,68
2016-09-08 13:58:00,13:58:00,13:58:59,30704,30878,16840.0,122,16845.0,78,16845.0,16850.0,16840.0,16845.0,249,95,16840,101,16845,54
2016-09-08 13:59:00,13:59:03,13:59:59,30885,31276,16840.0,93,16845.0,87,16845.0,16845.0,16825.0,16835.0,637,-255,16830,97,16835,18
2016-09-08 14:00:00,14:00:00,14:00:59,31278,31664,16830.0,95,16835.0,18,16830.0,16840.0,16820.0,16820.0,573,-101,16820,62,16825,51
2016-09-08 14:01:00,14:01:00,14:01:59,31669,31879,16820.0,56,16825.0,57,16825.0,16830.0,16820.0,16825.0,273,51,16820,90,16825,3
2016-09-08 14:02:00,14:02:00,14:02:51,31882,32045,16820.0,90,16825.0,3,16825.0,16830.0,16825.0,16825.0,290,-39,16820,106,16825,15
2016-09-08 14:03:00,14:03:00,14:03:49,32062,32188,16820.0,98,16825.0,107,16820.0,16825.0,16820.0,16825.0,187,59,16820,86,16825,99
2016-09-08 14:04:00,14:04:00,14:04:59,32204,32378,16820.0,86,16825.0,157,16825.0,16825.0,16815.0,16820.0,211,-143,16815,82,16825,212
2016-09-08 14:05:00,14:05:00,14:05:59,32379,32600,16815.0,89,16820.0,13,16820.0,16825.0,16815.0,16820.0,398,-210,16820,4,16825,201
2016-09-08 14:06:00,14:06:00,14:06:53,32601,32699,16820.0,23,16825.0,199,16820.0,16825.0,16820.0,16820.0,132,8,16820,114,16825,159
2016-09-08 14:07:00,14:07:03,14:07:54,32706,32771,16820.0,119,16825.0,165,16820.0,16825.0,16820.0,16820.0,101,-97,16815,57,16820,23
2016-09-08 14:08:00,14:08:02,14:08:10,32783,32800,16815.0,33,16820.0,50,16820.0,16820.0,16815.0,16820.0,20,-2,16815,36,16820,41
