,ST,ET,sidx,eidx,bB,bBS,bA,bAS,O,H,L,C,V,OF,eB,eBS,eA,eAS
2016-07-13 08:00:00,08:00:00,08:00:59,3100,3695,16445.0,2,16450.0,34,16440.0,16460.0,16430.0,16435.0,876,-177,16435,13,16440,14
2016-07-13 08:01:00,08:01:01,08:01:59,3703,4229,16435.0,11,16440.0,24,16435.0,16435.0,16420.0,16425.0,608,-165,16420,42,16425,28
2016-07-13 08:02:00,08:02:00,08:02:58,4232,4639,16420.0,42,16425.0,28,16425.0,16430.0,16415.0,16420.0,442,-2,16415,29,16420,5
2016-07-13 08:03:00,08:03:00,08:03:59,4644,5173,16415.0,29,16420.0,14,16415.0,16420.0,16405.0,16420.0,584,97,16415,47,16420,13
2016-07-13 08:04:00,08:04:00,08:04:57,5176,5460,16415.0,47,16420.0,13,16420.0,16430.0,16415.0,16425.0,287,127,16420,30,16425,26
2016-07-13 08:05:00,08:05:01,08:05:51,5469,5770,16420.0,28,16425.0,33,16420.0,16425.0,16415.0,16415.0,314,-86,16415,2,16420,212
2016-07-13 08:06:00,08:06:02,08:06:59,5784,6088,16415.0,19,16420.0,224,16420.0,16420.0,16415.0,16415.0,369,151,16415,8,16420,34
2016-07-13 08:07:00,08:07:01,08:07:54,6096,6514,16415.0,25,16420.0,35,16420.0,16420.0,16390.0,16390.0,487,-227,16390,55,16395,35
2016-07-13 08:08:00,08:08:00,08:08:59,6528,6966,16390.0,48,16395.0,48,16390.0,16395.0,16385.0,16385.0,525,-74,16380,124,16385,5
2016-07-13 08:09:00,08:09:00,08:09:59,6973,7437,16380.0,126,16385.0,14,16385.0,16390.0,16375.0,16385.0,711,-23,16380,30,16385,10
2016-07-13 08:10:00,08:10:00,08:10:59,7440,7865,16380.0,30,16385.0,10,16385.0,16385.0,16370.0,16375.0,465,31,16370,38,16375,20
2016-07-13 08:11:00,08:11:00,08:11:56,7868,8243,16370.0,38,16375.0,20,16375.0,16380.0,16365.0,16375.0,365,-44,16375,2,16380,35
2016-07-13 08:12:00,08:12:00,08:12:51,8256,8565,16375.0,28,16380.0,28,16380.0,16390.0,16375.0,16375.0,270,114,16375,15,16380,43
2016-07-13 08:13:00,08:13:05,08:13:58,8598,8896,16375.0,16,16380.0,49,16375.0,16375.0,16360.0,16360.0,297,-77,16360,7,16365,28
2016-07-13 08:14:00,08:14:04,08:14:51,8911,9222,16360.0,35,16365.0,29,16365.0,16370.0,16350.0,16350.0,340,-151,16350,4,16355,26
2016-07-13 08:15:00,08:15:01,08:15:57,9251,9811,16350.0,42,16355.0,21,16355.0,16355.0,16325.0,16335.0,801,-127,16330,29,16335,6
2016-07-13 08:16:00,08:16:00,08:16:52,9819,10229,16330.0,27,16335.0,8,16330.0,16340.0,16320.0,16325.0,422,-46,16325,29,16330,26
2016-07-13 08:17:00,08:17:07,08:17:59,10252,10615,16325.0,29,16330.0,33,16325.0,16335.0,16320.0,16335.0,372,119,16335,15,16340,52
2016-07-13 08:18:00,08:18:01,08:18:59,10620,11065,16335.0,32,16340.0,41,16340.0,16355.0,16340.0,16340.0,514,62,16340,4,16345,86
2016-07-13 08:19:00,08:19:01,08:19:53,11073,11476,16340.0,18,16345.0,90,16340.0,16355.0,16340.0,16355.0,584,235,16350,30,16355,9
2016-07-13 08:20:00,08:20:00,08:20:59,11490,12214,16350.0,35,16355.0,26,16350.0,16385.0,16345.0,16380.0,909,384,16375,35,16380,3
2016-07-13 08:21:00,08:21:00,08:21:55,12216,12460,16375.0,33,16380.0,3,16380.0,16380.0,16360.0,16360.0,216,-20,16355,28,16360,9
2016-07-13 08:22:00,08:22:00,08:22:37,12470,12611,16355.0,23,16360.0,25,16360.0,16360.0,16355.0,16360.0,85,5,16355,25,16360,29
2016-07-13 08:23:00,08:23:01,08:23:57,12633,12885,16355.0,32,16360.0,30,16360.0,16375.0,16360.0,16370.0,214,157,16365,21,16370,21
2016-07-13 08:24:00,08:24:04,08:24:55,12897,13157,16365.0,13,16370.0,33,16365.0,16365.0,16350.0,16355.0,243,-30,16355,20,16360,31
2016-07-13 08:25:00,08:25:05,08:25:58,13173,13335,16355.0,41,16360.0,9,16360.0,16365.0,16355.0,16355.0,95,-21,16350,39,16355,5
2016-07-13 08:26:00,08:26:01,08:26:46,13343,13577,16350.0,41,16355.0,10,16355.0,16355.0,16345.0,16350.0,261,85,16345,48,16350,9
2016-07-13 08:27:00,08:27:00,08:27:49,13600,13810,16345.0,42,16350.0,21,16345.0,16360.0,16340.0,16355.0,200,44,16355,5,16360,27
2016-07-13 08:28:00,08:28:05,08:28:58,13833,13959,16355.0,14,16360.0,34,16360.0,16360.0,16355.0,16355.0,94,26,16355,8,16360,29
2016-07-13 08:29:00,08:29:03,08:29:51,13965,14163,16355.0,11,16360.0,31,16355.0,16370.0,16355.0,16370.0,146,82,16365,17,16370,23
2016-07-13 08:30:00,08:30:00,08:30:53,14183,14542,16365.0,17,16370.0,26,16365.0,16385.0,16360.0,16380.0,388,55,16375,21,16380,52
2016-07-13 08:31:00,08:31:03,08:31:53,14563,14807,16375.0,30,16380.0,52,16380.0,16380.0,16365.0,16365.0,215,1,16365,5,16370,60
2016-07-13 08:32:00,08:32:02,08:32:59,14818,14980,16365.0,33,16370.0,42,16370.0,16380.0,16370.0,16375.0,132,90,16370,31,16375,5
2016-07-13 08:33:00,08:33:00,08:33:29,14984,15055,16370.0,31,16375.0,6,16375.0,16375.0,16370.0,16375.0,60,58,16375,7,16380,36
2016-07-13 08:34:00,08:34:10,08:34:57,15116,15198,16375.0,21,16380.0,32,16375.0,16380.0,16370.0,16380.0,26,10,16375,34,16380,23
2016-07-13 08:35:00,08:35:39,08:35:59,15248,15343,16375.0,33,16380.0,25,16380.0,16380.0,16380.0,16380.0,86,50,16380,7,16385,38
2016-07-13 08:36:00,08:36:00,08:36:55,15345,15413,16380.0,7,16385.0,41,16380.0,16385.0,16380.0,16380.0,6,-2,16380,37,16385,29
2016-07-13 08:37:00,08:37:01,08:37:58,15423,15736,16380.0,34,16385.0,40,16380.0,16380.0,16365.0,16370.0,288,-40,16365,35,16370,3
2016-07-13 08:38:00,08:38:12,08:38:52,15762,16030,16365.0,13,16370.0,44,16365.0,16370.0,16360.0,16365.0,266,92,16365,4,16370,26
2016-07-13 08:39:00,08:39:04,08:39:54,16049,16216,16365.0,3,16370.0,29,16365.0,16380.0,16365.0,16380.0,113,67,16380,45,16385,23
2016-07-13 08:40:00,08:40:15,08:40:55,16238,16346,16380.0,48,16385.0,18,16385.0,16385.0,16385.0,16385.0,91,43,16380,37,16385,8
2016-07-13 08:41:00,08:41:04,08:41:54,16352,16556,16380.0,37,16385.0,14,16385.0,16400.0,16385.0,16400.0,199,163,16395,33,16400,34
2016-07-13 08:42:00,08:42:03,08:42:58,16563,16802,16395.0,31,16400.0,35,16395.0,16405.0,16395.0,16400.0,305,43,16395,23,16400,29
2016-07-13 08:43:00,08:43:00,08:43:59,16812,16992,16395.0,10,16400.0,38,16395.0,16395.0,16385.0,16390.0,188,-86,16390,7,16395,33
2016-07-13 08:44:00,08:44:11,08:44:53,17006,17144,16390.0,8,16395.0,37,16390.0,16390.0,16380.0,16390.0,120,58,16385,36,16390,22
2016-07-13 08:45:00,08:45:06,08:45:58,17158,17278,16385.0,28,16390.0,26,16385.0,16400.0,16385.0,16400.0,95,17,16395,30,16400,29
2016-07-13 08:46:00,08:46:13,08:46:51,17298,17456,16395.0,33,16400.0,32,16400.0,16405.0,16395.0,16405.0,149,50,16400,27,16405,19
2016-07-13 08:47:00,08:47:19,08:47:59,17495,17629,16400.0,31,16405.0,36,16405.0,16405.0,16405.0,16405.0,157,157,16400,52,16405,36
2016-07-13 08:48:00,08:48:01,08:48:53,17635,17767,16400.0,55,16405.0,39,16405.0,16405.0,16395.0,16395.0,86,-78,16395,24,16400,32
2016-07-13 08:49:00,08:49:23,08:49:55,17789,17914,16395.0,47,16400.0,15,16395.0,16410.0,16395.0,16410.0,145,-15,16405,63,16410,8
2016-07-13 08:50:00,08:50:06,08:50:59,17921,18019,16405.0,68,16410.0,12,16410.0,16410.0,16405.0,16410.0,114,68,16405,54,16410,11
2016-07-13 08:51:00,08:51:00,08:51:55,18020,18218,16410.0,15,16415.0,29,16410.0,16415.0,16410.0,16415.0,151,35,16415,6,16420,38
2016-07-13 08:52:00,08:52:26,08:52:37,18274,18330,16415.0,13,16420.0,41,16415.0,16415.0,16415.0,16415.0,64,-33,16410,53,16420,40
2016-07-13 08:53:00,08:53:04,08:53:46,18369,18513,16415.0,43,16420.0,24,16420.0,16425.0,16415.0,16420.0,127,5,16415,47,16420,26
2016-07-13 08:54:00,08:54:02,08:54:58,18529,18693,16415.0,45,16420.0,25,16420.0,16420.0,16415.0,16420.0,148,66,16415,32,16420,14
2016-07-13 08:55:00,08:55:05,08:55:59,18715,18895,16415.0,21,16420.0,25,16415.0,16420.0,16410.0,16415.0,184,6,16410,42,16420,36
2016-07-13 08:56:00,08:56:02,08:56:41,18899,19141,16410.0,42,16415.0,6,16415.0,16425.0,16415.0,16415.0,227,32,16410,32,16415,12
2016-07-13 08:57:00,08:57:06,08:57:54,19163,19333,16410.0,29,16415.0,25,16410.0,16420.0,16405.0,16415.0,141,39,16410,35,16415,22
2016-07-13 08:58:00,08:58:01,08:58:59,19340,19602,16410.0,40,16415.0,23,16410.0,16415.0,16410.0,16410.0,256,-44,16405,47,16410,26
2016-07-13 08:59:00,08:59:00,08:59:58,19605,19762,16405.0,47,16410.0,26,16410.0,16410.0,16400.0,16400.0,151,-13,16400,19,16405,69
2016-07-13 09:00:00,09:00:00,09:00:58,19766,20136,16400.0,19,16405.0,70,16400.0,16400.0,16385.0,16390.0,367,-168,16390,12,16395,46
2016-07-13 09:01:00,09:01:00,09:01:57,20140,20404,16390.0,16,16395.0,46,16390.0,16390.0,16380.0,16380.0,282,-34,16380,63,16385,14
2016-07-13 09:02:00,09:02:05,09:02:58,20413,20602,16380.0,61,16385.0,24,16380.0,16390.0,16380.0,16385.0,163,13,16380,39,16385,15
2016-07-13 09:03:00,09:03:00,09:03:51,20612,20924,16380.0,33,16385.0,35,16380.0,16395.0,16380.0,16390.0,415,77,16385,44,16390,7
2016-07-13 09:04:00,09:04:02,09:04:49,20936,21058,16385.0,29,16390.0,37,16390.0,16390.0,16380.0,16385.0,84,36,16385,17,16390,31
2016-07-13 09:05:00,09:05:04,09:05:54,21087,21241,16385.0,29,16390.0,30,16385.0,16390.0,16380.0,16380.0,117,-15,16380,26,16385,28
2016-07-13 09:06:00,09:06:00,09:06:58,21248,21487,16380.0,25,16385.0,32,16385.0,16385.0,16370.0,16375.0,302,14,16370,157,16375,2
2016-07-13 09:07:00,09:07:00,09:07:56,21494,21763,16370.0,158,16375.0,13,16375.0,16385.0,16370.0,16380.0,333,-48,16380,4,16385,48
2016-07-13 09:08:00,09:08:00,09:08:59,21775,22188,16380.0,30,16385.0,28,16385.0,16395.0,16375.0,16380.0,580,15,16380,117,16380,3
2016-07-13 09:09:00,09:09:00,09:09:59,22190,22653,16375.0,53,16380.0,3,16380.0,16395.0,16380.0,16380.0,761,-110,16375,27,16380,24
2016-07-13 09:10:00,09:10:01,09:10:57,22658,22844,16375.0,14,16380.0,36,16380.0,16380.0,16375.0,16375.0,224,139,16375,7,16380,120
2016-07-13 09:11:00,09:11:01,09:11:55,22850,23030,16375.0,10,16380.0,120,16380.0,16380.0,16370.0,16380.0,316,214,16375,36,16380,19
2016-07-13 09:12:00,09:12:01,09:12:59,23037,23184,16375.0,39,16380.0,18,16380.0,16380.0,16370.0,16370.0,93,-35,16370,9,16375,22
2016-07-13 09:13:00,09:13:01,09:13:56,23190,23381,16370.0,6,16375.0,21,16375.0,16375.0,16365.0,16365.0,149,27,16365,22,16370,27
2016-07-13 09:14:00,09:14:01,09:14:57,23385,23607,16365.0,19,16370.0,27,16370.0,16370.0,16360.0,16360.0,202,-45,16360,21,16365,71
2016-07-13 09:15:00,09:15:01,09:15:55,23612,23834,16360.0,27,16365.0,71,16365.0,16365.0,16350.0,16350.0,261,-75,16345,23,16355,49
2016-07-13 09:16:00,09:16:00,09:16:56,23844,24167,16350.0,38,16355.0,27,16350.0,16370.0,16350.0,16360.0,422,-84,16360,7,16365,29
2016-07-13 09:17:00,09:17:01,09:17:59,24179,24651,16360.0,19,16365.0,16,16365.0,16365.0,16325.0,16330.0,671,-368,16330,29,16335,24
2016-07-13 09:18:00,09:18:00,09:18:58,24654,25127,16330.0,29,16335.0,24,16330.0,16350.0,16320.0,16350.0,801,-124,16350,10,16355,31
2016-07-13 09:19:00,09:19:02,09:19:59,25137,25279,16345.0,39,16350.0,31,16350.0,16355.0,16345.0,16350.0,63,35,16350,26,16355,23
2016-07-13 09:20:00,09:20:02,09:20:53,25285,25458,16350.0,26,16355.0,23,16355.0,16365.0,16355.0,16365.0,171,126,16360,36,16365,8
2016-07-13 09:21:00,09:21:00,09:21:58,25475,25633,16360.0,27,16365.0,27,16360.0,16370.0,16360.0,16365.0,110,64,16360,34,16365,21
2016-07-13 09:22:00,09:22:02,09:22:58,25638,25776,16360.0,29,16365.0,20,16365.0,16370.0,16360.0,16365.0,76,4,16360,31,16365,18
2016-07-13 09:23:00,09:23:02,09:23:53,25783,25881,16360.0,26,16365.0,23,16365.0,16365.0,16360.0,16365.0,41,23,16360,28,16365,24
2016-07-13 09:24:00,09:24:00,09:24:55,25892,26070,16360.0,32,16365.0,29,16365.0,16365.0,16355.0,16355.0,182,-81,16355,21,16360,36
2016-07-13 09:25:00,09:25:00,09:25:55,26081,26262,16355.0,22,16360.0,34,16355.0,16355.0,16340.0,16340.0,190,-58,16340,22,16345,25
2016-07-13 09:26:00,09:26:04,09:26:59,26279,26522,16340.0,24,16345.0,35,16340.0,16345.0,16335.0,16345.0,195,-9,16345,10,16345,6
2016-07-13 09:27:00,09:27:00,09:27:41,26524,26639,16340.0,39,16345.0,6,16345.0,16350.0,16345.0,16345.0,59,1,16345,17,16350,49
2016-07-13 09:28:00,09:28:01,09:28:49,26661,26765,16345.0,18,16350.0,99,16345.0,16345.0,16340.0,16340.0,49,27,16340,27,16345,62
2016-07-13 09:29:00,09:29:01,09:29:57,26779,27048,16340.0,29,16345.0,64,16340.0,16355.0,16340.0,16355.0,394,25,16350,20,16355,49
2016-07-13 09:30:00,09:30:00,09:30:58,27057,27330,16350.0,13,16355.0,49,16350.0,16350.0,16335.0,16345.0,207,-19,16345,21,16350,26
2016-07-13 09:31:00,09:31:04,09:31:56,27343,27639,16345.0,9,16350.0,35,16345.0,16345.0,16325.0,16325.0,293,-33,16320,37,16325,8
2016-07-13 09:32:00,09:32:00,09:32:59,27648,28110,16320.0,38,16325.0,12,16325.0,16325.0,16305.0,16310.0,481,-27,16305,44,16310,2
2016-07-13 09:33:00,09:33:00,09:33:55,28114,28317,16305.0,44,16310.0,3,16310.0,16325.0,16305.0,16320.0,140,56,16320,39,16325,18
2016-07-13 09:34:00,09:34:03,09:34:51,28329,28523,16320.0,45,16325.0,20,16325.0,16335.0,16325.0,16335.0,161,65,16335,3,16340,44
2016-07-13 09:35:00,09:35:09,09:35:43,28546,28712,16335.0,5,16340.0,44,16335.0,16335.0,16330.0,16330.0,151,72,16330,5,16335,32
2016-07-13 09:36:00,09:36:00,09:36:52,28732,28966,16330.0,20,16335.0,33,16330.0,16355.0,16330.0,16350.0,269,207,16350,25,16355,46
2016-07-13 09:37:00,09:37:01,09:37:59,28978,29147,16350.0,52,16355.0,37,16355.0,16360.0,16355.0,16355.0,148,52,16350,65,16355,5
2016-07-13 09:38:00,09:38:20,09:38:58,29185,29305,16350.0,64,16355.0,25,16355.0,16355.0,16335.0,16340.0,88,-78,16335,20,16340,34
2016-07-13 09:39:00,09:39:05,09:39:49,29313,29498,16335.0,26,16340.0,32,16340.0,16350.0,16340.0,16345.0,195,133,16345,12,16350,31
2016-07-13 09:40:00,09:40:09,09:40:59,29532,29752,16345.0,33,16350.0,26,16345.0,16355.0,16345.0,16355.0,126,70,16355,21,16360,21
2016-07-13 09:41:00,09:41:15,09:41:58,29783,29900,16355.0,30,16360.0,20,16360.0,16360.0,16350.0,16355.0,80,-32,16355,15,16360,32
2016-07-13 09:42:00,09:42:14,09:42:59,29925,30039,16355.0,28,16360.0,18,16360.0,16370.0,16360.0,16365.0,67,29,16360,31,16365,28
2016-07-13 09:43:00,09:43:07,09:43:57,30052,30254,16360.0,22,16365.0,31,16360.0,16360.0,16345.0,16345.0,140,2,16340,33,16345,3
2016-07-13 09:44:00,09:44:10,09:44:59,30274,30553,16340.0,23,16345.0,25,16340.0,16340.0,16325.0,16335.0,310,-40,16330,38,16335,1
2016-07-13 09:45:00,09:45:00,09:45:57,30558,30822,16330.0,38,16335.0,4,16335.0,16340.0,16330.0,16330.0,200,-46,16330,57,16335,48
2016-07-13 09:46:00,09:46:02,09:46:56,30831,31022,16330.0,59,16335.0,45,16335.0,16345.0,16335.0,16340.0,134,-14,16335,31,16340,19
2016-07-13 09:47:00,09:47:04,09:47:53,31030,31162,16335.0,24,16340.0,31,16335.0,16335.0,16330.0,16335.0,73,-29,16330,53,16335,9
2016-07-13 09:48:00,09:48:00,09:48:59,31174,31354,16330.0,44,16335.0,23,16330.0,16335.0,16330.0,16335.0,155,-1,16330,30,16340,38
2016-07-13 09:49:00,09:49:04,09:49:59,31363,31491,16335.0,8,16340.0,38,16335.0,16340.0,16335.0,16340.0,57,-3,16340,4,16345,40
2016-07-13 09:50:00,09:50:00,09:50:55,31492,31657,16335.0,35,16340.0,24,16340.0,16345.0,16325.0,16325.0,102,-76,16325,36,16330,20
2016-07-13 09:51:00,09:51:09,09:51:57,31674,31853,16325.0,20,16330.0,29,16325.0,16325.0,16315.0,16315.0,110,-50,16310,28,16315,12
2016-07-13 09:52:00,09:52:00,09:52:49,31862,32044,16310.0,32,16315.0,10,16315.0,16325.0,16315.0,16320.0,196,81,16315,20,16320,30
2016-07-13 09:53:00,09:53:02,09:53:51,32060,32243,16315.0,46,16320.0,30,16320.0,16320.0,16310.0,16315.0,177,-65,16310,20,16315,28
2016-07-13 09:54:00,09:54:00,09:54:59,32254,32844,16310.0,23,16315.0,30,16310.0,16310.0,16285.0,16290.0,795,-304,16285,85,16290,7
2016-07-13 09:55:00,09:55:00,09:55:59,32849,33169,16285.0,75,16290.0,27,16290.0,16290.0,16275.0,16280.0,462,-188,16280,15,16285,36
2016-07-13 09:56:00,09:56:00,09:56:57,33175,33485,16280.0,15,16285.0,33,16280.0,16280.0,16275.0,16280.0,308,-33,16280,8,16285,166
2016-07-13 09:57:00,09:57:01,09:57:58,33495,33728,16280.0,24,16285.0,166,16285.0,16285.0,16280.0,16285.0,193,-37,16285,4,16290,151
2016-07-13 09:58:00,09:58:02,09:58:59,33731,33946,16285.0,1,16290.0,152,16290.0,16300.0,16285.0,16300.0,269,218,16300,13,16305,23
2016-07-13 09:59:00,09:59:00,09:59:47,33947,34157,16295.0,35,16300.0,40,16305.0,16305.0,16290.0,16290.0,124,10,16290,12,16295,29
2016-07-13 10:00:00,10:00:03,10:00:59,34187,34493,16290.0,10,16295.0,27,16290.0,16295.0,16280.0,16290.0,330,-62,16285,7,16290,25
2016-07-13 10:01:00,10:01:00,10:01:56,34496,35052,16285.0,7,16290.0,25,16290.0,16330.0,16285.0,16325.0,660,456,16325,22,16330,28
2016-07-13 10:02:00,10:02:01,10:02:54,35061,35251,16325.0,30,16330.0,26,16330.0,16330.0,16320.0,16320.0,101,-21,16320,12,16325,28
2016-07-13 10:03:00,10:03:02,10:03:58,35266,35424,16320.0,17,16325.0,25,16325.0,16325.0,16315.0,16325.0,97,-19,16320,9,16325,30
2016-07-13 10:04:00,10:04:02,10:04:56,35431,35583,16320.0,8,16325.0,30,16325.0,16325.0,16300.0,16300.0,98,-62,16295,22,16300,6
2016-07-13 10:05:00,10:05:01,10:05:59,35594,35935,16295.0,13,16300.0,17,16295.0,16300.0,16265.0,16265.0,356,-140,16265,7,16270,17
2016-07-13 10:06:00,10:06:00,10:06:59,35938,36265,16265.0,7,16270.0,17,16265.0,16280.0,16260.0,16270.0,268,-10,16265,27,16275,23
2016-07-13 10:07:00,10:07:00,10:07:59,36268,36523,16265.0,27,16275.0,23,16270.0,16280.0,16265.0,16275.0,182,-35,16270,31,16280,20
2016-07-13 10:08:00,10:08:01,10:08:59,36528,36749,16270.0,29,16275.0,6,16275.0,16285.0,16265.0,16285.0,171,-67,16280,19,16285,11
2016-07-13 10:09:00,10:09:01,10:09:58,36752,36878,16280.0,19,16285.0,11,16285.0,16285.0,16280.0,16280.0,67,20,16275,29,16280,2
2016-07-13 10:10:00,10:10:01,10:10:56,36888,37220,16275.0,31,16280.0,1,16280.0,16285.0,16270.0,16280.0,301,-13,16275,19,16280,9
2016-07-13 10:11:00,10:11:07,10:11:57,37239,37383,16275.0,14,16280.0,16,16280.0,16290.0,16280.0,16290.0,100,56,16285,19,16290,16
2016-07-13 10:12:00,10:12:00,10:12:54,37392,37541,16285.0,21,16290.0,21,16285.0,16285.0,16280.0,16285.0,94,13,16280,19,16285,27
2016-07-13 10:13:00,10:13:12,10:13:46,37553,37619,16280.0,18,16285.0,32,16285.0,16285.0,16280.0,16285.0,31,5,16280,18,16285,27
2016-07-13 10:14:00,10:14:06,10:14:59,37640,37767,16280.0,15,16285.0,30,16285.0,16290.0,16280.0,16285.0,76,24,16280,5,16285,30
2016-07-13 10:15:00,10:15:00,10:15:51,37770,37912,16280.0,5,16285.0,30,16280.0,16280.0,16270.0,16275.0,80,32,16270,18,16275,7
2016-07-13 10:16:00,10:16:04,10:16:57,37930,38101,16270.0,8,16275.0,15,16270.0,16270.0,16255.0,16255.0,178,-158,16250,81,16255,21
2016-07-13 10:17:00,10:17:01,10:17:51,38112,38259,16250.0,78,16255.0,24,16250.0,16265.0,16250.0,16265.0,126,47,16260,26,16265,6
2016-07-13 10:18:00,10:18:10,10:18:56,38297,38452,16260.0,29,16265.0,6,16260.0,16265.0,16255.0,16260.0,64,-20,16260,23,16265,18
2016-07-13 10:19:00,10:19:04,10:19:59,38464,38745,16260.0,25,16265.0,10,16265.0,16265.0,16255.0,16260.0,234,34,16255,22,16265,32
2016-07-13 10:20:00,10:20:14,10:20:57,38758,38916,16255.0,23,16260.0,5,16260.0,16265.0,16250.0,16250.0,170,-87,16245,21,16250,11
2016-07-13 10:21:00,10:21:07,10:21:42,38924,39061,16245.0,21,16250.0,14,16245.0,16260.0,16245.0,16255.0,139,25,16255,22,16260,20
2016-07-13 10:22:00,10:22:00,10:22:59,39089,39409,16255.0,21,16260.0,20,16260.0,16265.0,16250.0,16250.0,322,-156,16250,10,16255,20
2016-07-13 10:23:00,10:23:01,10:23:59,39415,39731,16250.0,10,16255.0,24,16250.0,16255.0,16235.0,16240.0,356,-232,16235,11,16240,26
2016-07-13 10:24:00,10:24:00,10:24:51,39733,40018,16235.0,11,16240.0,32,16235.0,16240.0,16230.0,16235.0,466,-190,16230,26,16235,15
2016-07-13 10:25:00,10:25:00,10:25:56,40043,40313,16230.0,15,16235.0,35,16230.0,16230.0,16215.0,16225.0,282,-216,16220,22,16225,24
2016-07-13 10:26:00,10:26:02,10:26:57,40323,40639,16220.0,26,16225.0,16,16220.0,16220.0,16210.0,16210.0,315,-233,16210,16,16215,18
2016-07-13 10:27:00,10:27:00,10:27:53,40646,40920,16210.0,21,16215.0,17,16215.0,16235.0,16210.0,16235.0,217,1,16230,30,16235,15
2016-07-13 10:28:00,10:28:01,10:28:55,40938,41410,16230.0,30,16235.0,20,16230.0,16240.0,16230.0,16240.0,817,-401,16235,33,16240,3
2016-07-13 10:29:00,10:29:00,10:29:59,41422,41804,16235.0,32,16240.0,17,16235.0,16245.0,16235.0,16245.0,364,-119,16240,25,16245,6
2016-07-13 10:30:00,10:30:00,10:30:57,41809,42168,16240.0,23,16245.0,11,16240.0,16260.0,16240.0,16260.0,401,67,16260,34,16265,24
2016-07-13 10:31:00,10:31:01,10:31:47,42171,42409,16260.0,34,16265.0,24,16265.0,16265.0,16255.0,16255.0,238,28,16255,10,16260,18
2016-07-13 10:32:00,10:32:00,10:32:51,42422,42531,16255.0,6,16260.0,20,16255.0,16260.0,16250.0,16260.0,29,5,16255,20,16260,18
2016-07-13 10:33:00,10:33:04,10:33:52,42544,42682,16255.0,15,16260.0,20,16255.0,16255.0,16245.0,16245.0,95,-3,16245,13,16250,23
2016-07-13 10:34:00,10:34:10,10:34:57,42694,42830,16245.0,6,16250.0,23,16245.0,16245.0,16235.0,16235.0,115,-112,16235,21,16240,20
2016-07-13 10:35:00,10:35:00,10:35:59,42835,43046,16235.0,21,16240.0,23,16235.0,16255.0,16235.0,16250.0,132,-44,16250,6,16255,18
2016-07-13 10:36:00,10:36:02,10:36:52,43051,43148,16250.0,6,16255.0,18,16250.0,16250.0,16240.0,16250.0,65,3,16250,26,16255,22
2016-07-13 10:37:00,10:37:04,10:37:59,43169,43435,16250.0,32,16255.0,10,16255.0,16265.0,16250.0,16260.0,271,48,16255,17,16265,18
2016-07-13 10:38:00,10:38:04,10:38:49,43446,43513,16255.0,18,16260.0,6,16260.0,16265.0,16255.0,16265.0,63,47,16260,6,16265,16
2016-07-13 10:39:00,10:39:07,10:39:58,43530,43643,16260.0,18,16265.0,21,16260.0,16265.0,16255.0,16265.0,59,-15,16260,22,16265,2
2016-07-13 10:40:00,10:40:02,10:40:59,43649,43877,16260.0,26,16265.0,5,16265.0,16275.0,16260.0,16270.0,159,-10,16265,22,16275,23
2016-07-13 10:41:00,10:41:00,10:41:57,43880,44037,16265.0,22,16275.0,23,16270.0,16275.0,16270.0,16270.0,153,96,16270,6,16280,22
2016-07-13 10:42:00,10:42:01,10:42:58,44040,44277,16270.0,9,16275.0,14,16275.0,16275.0,16265.0,16265.0,180,14,16265,7,16270,17
2016-07-13 10:43:00,10:43:00,10:43:50,44281,44341,16265.0,7,16270.0,16,16265.0,16265.0,16255.0,16260.0,57,34,16260,61,16265,23
2016-07-13 10:44:00,10:44:24,10:44:54,44359,44431,16260.0,61,16265.0,22,16265.0,16270.0,16265.0,16270.0,55,51,16265,14,16270,11
2016-07-13 10:45:00,10:45:01,10:45:31,44438,44444,16265.0,17,16270.0,9,16270.0,16270.0,16270.0,16270.0,5,5,16265,15,16270,3
2016-07-13 10:46:00,10:46:04,10:46:53,44458,44599,16265.0,14,16270.0,5,16270.0,16275.0,16265.0,16270.0,131,59,16270,17,16275,13
2016-07-13 10:47:00,10:47:22,10:47:22,44619,44619,16270.0,21,16275.0,20,16275.0,16275.0,16275.0,16275.0,1,1,16270,22,16275,16
2016-07-13 10:48:00,10:48:11,10:48:32,44635,44654,16270.0,21,16275.0,21,16270.0,16270.0,16270.0,16270.0,12,-12,16270,16,16275,13
2016-07-13 10:49:00,10:49:17,10:49:59,44683,44806,16270.0,20,16275.0,14,16275.0,16280.0,16275.0,16275.0,114,74,16270,17,16275,8
2016-07-13 10:50:00,10:50:09,10:50:58,44818,44879,16270.0,16,16275.0,13,16275.0,16275.0,16270.0,16270.0,33,-5,16270,3,16275,34
2016-07-13 10:51:00,10:51:06,10:51:11,44886,44897,16270.0,3,16275.0,20,16270.0,16270.0,16265.0,16265.0,3,-3,16265,19,16270,12
2016-07-13 10:52:00,10:52:06,10:52:17,44932,44948,16265.0,9,16270.0,20,16265.0,16265.0,16260.0,16260.0,12,-12,16260,65,16265,20
2016-07-13 10:53:00,10:53:00,10:53:58,44960,45044,16260.0,65,16265.0,22,16265.0,16275.0,16265.0,16270.0,48,34,16270,2,16275,16
2016-07-13 10:54:00,10:54:01,10:54:14,45047,45071,16270.0,2,16275.0,16,16270.0,16270.0,16270.0,16270.0,12,-2,16265,22,16270,3
2016-07-13 10:55:00,10:55:01,10:55:15,45102,45124,16265.0,20,16270.0,8,16270.0,16270.0,16270.0,16270.0,11,7,16270,2,16275,18
2016-07-13 10:56:00,10:56:09,10:56:43,45164,45193,16270.0,4,16275.0,16,16270.0,16270.0,16270.0,16270.0,11,-1,16265,18,16270,7
2016-07-13 10:57:00,10:57:06,10:57:45,45215,45258,16265.0,20,16270.0,6,16270.0,16275.0,16270.0,16275.0,16,14,16270,17,16280,19
2016-07-13 10:58:00,10:58:07,10:58:45,45268,45303,16270.0,17,16275.0,2,16275.0,16275.0,16275.0,16275.0,17,17,16275,14,16280,19
2016-07-13 10:59:00,10:59:15,10:59:48,45327,45359,16275.0,20,16280.0,13,16280.0,16280.0,16280.0,16280.0,16,16,16275,19,16280,13
2016-07-13 11:00:00,11:00:11,11:00:46,45373,45431,16275.0,17,16280.0,10,16275.0,16275.0,16270.0,16270.0,43,-29,16265,20,16275,20
2016-07-13 11:01:00,11:01:19,11:01:56,45458,45551,16265.0,64,16270.0,7,16270.0,16275.0,16265.0,16270.0,111,47,16265,11,16270,8
2016-07-13 11:02:00,11:02:16,11:02:31,45559,45588,16265.0,13,16270.0,4,16270.0,16270.0,16270.0,16270.0,22,10,16265,17,16270,1
2016-07-13 11:03:00,11:03:00,11:03:00,0,0,0.0,0,0.0,0,16270.0,16270.0,16270.0,16270.0,0,0,0,0,0,0
2016-07-13 11:04:00,11:04:00,11:04:58,45620,45679,16265.0,16,16270.0,9,16270.0,16275.0,16265.0,16265.0,83,-59,16265,21,16265,5
2016-07-13 11:05:00,11:05:07,11:05:31,45681,45758,16260.0,65,16265.0,5,16265.0,16270.0,16260.0,16265.0,80,-28,16265,3,16270,12
2016-07-13 11:06:00,11:06:11,11:06:59,45783,45835,16265.0,16,16270.0,17,16265.0,16270.0,16265.0,16270.0,36,8,16270,21,16275,24
2016-07-13 11:07:00,11:07:04,11:07:33,45844,45920,16270.0,17,16275.0,25,16275.0,16275.0,16270.0,16270.0,72,15,16265,19,16270,7
2016-07-13 11:08:00,11:08:13,11:08:32,45943,45971,16265.0,19,16270.0,10,16270.0,16270.0,16270.0,16270.0,20,20,16265,19,16275,18
2016-07-13 11:09:00,11:09:08,11:09:56,46009,46136,16265.0,13,16270.0,13,16265.0,16265.0,16265.0,16265.0,81,-36,16260,62,16270,53
2016-07-13 11:10:00,11:10:04,11:10:54,46144,46202,16265.0,16,16270.0,54,16265.0,16270.0,16265.0,16270.0,87,29,16270,3,16275,15
2016-07-13 11:11:00,11:11:46,11:11:49,46241,46267,16270.0,12,16275.0,19,16270.0,16270.0,16270.0,16270.0,24,-6,16265,24,16275,19
2016-07-13 11:12:00,11:12:23,11:12:55,46300,46356,16270.0,23,16275.0,11,16275.0,16275.0,16275.0,16275.0,42,4,16270,22,16280,21
2016-07-13 11:13:00,11:13:06,11:13:06,46360,46360,16270.0,22,16275.0,3,16275.0,16275.0,16275.0,16275.0,1,1,16270,19,16275,2
2016-07-13 11:14:00,11:14:14,11:14:50,46404,46450,16270.0,22,16275.0,20,16270.0,16270.0,16270.0,16270.0,40,-20,16270,6,16275,16
2016-07-13 11:15:00,11:15:17,11:15:38,46471,46503,16270.0,9,16275.0,17,16275.0,16275.0,16265.0,16265.0,34,-32,16265,6,16270,16
2016-07-13 11:16:00,11:16:09,11:16:28,46516,46542,16265.0,19,16270.0,15,16265.0,16265.0,16265.0,16265.0,16,2,16265,25,16270,14
2016-07-13 11:17:00,11:17:08,11:17:54,46557,46622,16265.0,28,16270.0,7,16270.0,16270.0,16270.0,16270.0,61,45,16270,2,16275,16
2016-07-13 11:18:00,11:18:55,11:18:58,46655,46689,16265.0,15,16270.0,56,16265.0,16265.0,16260.0,16265.0,31,-5,16265,10,16270,54
2016-07-13 11:19:00,11:19:31,11:19:58,46706,46781,16265.0,33,16270.0,51,16265.0,16265.0,16265.0,16265.0,126,-124,16265,2,16265,8
2016-07-13 11:20:00,11:20:00,11:20:57,46783,46926,16265.0,2,16270.0,49,16265.0,16265.0,16260.0,16265.0,212,-160,16260,16,16270,48
2016-07-13 11:21:00,11:21:02,11:21:11,46933,46946,16260.0,24,16270.0,50,16265.0,16265.0,16265.0,16265.0,11,2,16260,23,16270,48
2016-07-13 11:22:00,11:22:44,11:22:58,46973,47010,16265.0,9,16270.0,51,16270.0,16270.0,16270.0,16270.0,62,46,16265,17,16270,10
2016-07-13 11:23:00,11:23:05,11:23:40,47017,47061,16265.0,17,16270.0,6,16270.0,16275.0,16270.0,16275.0,19,19,16275,4,16280,19
2016-07-13 11:24:00,11:24:06,11:24:43,47074,47153,16275.0,17,16280.0,13,16275.0,16285.0,16275.0,16280.0,52,2,16280,10,16285,19
2016-07-13 11:25:00,11:25:28,11:25:59,47181,47270,16280.0,11,16285.0,16,16285.0,16290.0,16285.0,16290.0,71,40,16285,15,16290,26
2016-07-13 11:26:00,11:26:13,11:26:56,47283,47344,16285.0,9,16290.0,29,16285.0,16285.0,16285.0,16285.0,17,1,16280,13,16285,1
2016-07-13 11:27:00,11:27:01,11:27:57,47351,47408,16280.0,12,16285.0,5,16285.0,16290.0,16285.0,16290.0,35,7,16285,16,16290,17
2016-07-13 11:28:00,11:28:27,11:28:58,47421,47458,16285.0,16,16290.0,13,16290.0,16295.0,16290.0,16290.0,26,26,16285,19,16290,3
2016-07-13 11:29:00,11:29:08,11:29:59,47469,47571,16285.0,22,16290.0,4,16290.0,16290.0,16285.0,16285.0,62,-16,16280,19,16290,15
2016-07-13 11:30:00,11:30:00,11:30:59,47574,47793,16280.0,19,16290.0,15,16285.0,16300.0,16285.0,16300.0,135,11,16295,21,16300,19
2016-07-13 11:31:00,11:31:02,11:31:59,47801,48068,16295.0,22,16300.0,22,16300.0,16310.0,16300.0,16310.0,271,96,16310,14,16315,24
2016-07-13 11:32:00,11:32:12,11:32:56,48090,48255,16310.0,32,16315.0,14,16315.0,16325.0,16315.0,16320.0,117,9,16315,47,16325,36
2016-07-13 11:33:00,11:33:00,11:33:44,48264,48470,16320.0,18,16325.0,33,16320.0,16320.0,16310.0,16310.0,169,-16,16310,21,16315,18
2016-07-13 11:34:00,11:34:14,11:34:37,48487,48608,16310.0,35,16315.0,13,16310.0,16310.0,16305.0,16310.0,135,-31,16305,36,16315,28
2016-07-13 11:35:00,11:35:00,11:35:59,48634,48845,16310.0,18,16315.0,16,16315.0,16320.0,16310.0,16310.0,165,-52,16310,17,16315,24
2016-07-13 11:36:00,11:36:05,11:36:59,48852,48973,16310.0,14,16315.0,26,16310.0,16315.0,16310.0,16315.0,73,-1,16310,48,16315,5
2016-07-13 11:37:00,11:37:18,11:37:52,48988,49061,16310.0,47,16315.0,57,16315.0,16320.0,16315.0,16320.0,36,34,16315,29,16320,9
2016-07-13 11:38:00,11:38:09,11:38:57,49082,49188,16315.0,21,16320.0,22,16315.0,16320.0,16315.0,16320.0,80,34,16315,19,16320,22
2016-07-13 11:39:00,11:39:18,11:39:56,49201,49301,16315.0,19,16320.0,25,16315.0,16315.0,16315.0,16315.0,110,-62,16315,5,16320,26
2016-07-13 11:40:00,11:40:00,11:40:58,49309,49449,16315.0,11,16320.0,26,16320.0,16320.0,16310.0,16310.0,102,-22,16310,5,16315,39
2016-07-13 11:41:00,11:41:01,11:41:46,49458,49559,16310.0,11,16315.0,32,16310.0,16315.0,16310.0,16310.0,42,20,16310,29,16315,23
2016-07-13 11:42:00,11:42:01,11:42:56,49585,49698,16310.0,25,16315.0,21,16310.0,16310.0,16305.0,16305.0,93,-39,16300,62,16305,14
2016-07-13 11:43:00,11:43:14,11:43:58,49716,49932,16300.0,58,16305.0,35,16300.0,16300.0,16285.0,16285.0,224,-108,16285,28,16290,13
2016-07-13 11:44:00,11:44:03,11:44:55,49945,50051,16285.0,25,16290.0,14,16290.0,16300.0,16290.0,16300.0,44,16,16295,20,16300,19
2016-07-13 11:45:00,11:45:03,11:45:57,50061,50231,16295.0,20,16300.0,28,16295.0,16295.0,16290.0,16295.0,114,-80,16290,42,16295,5
2016-07-13 11:46:00,11:46:00,11:46:46,50234,50448,16290.0,42,16295.0,5,16295.0,16295.0,16290.0,16290.0,238,-136,16285,67,16290,3
2016-07-13 11:47:00,11:47:01,11:47:49,50465,50565,16285.0,50,16290.0,18,16290.0,16290.0,16285.0,16285.0,84,-38,16285,26,16290,26
2016-07-13 11:48:00,11:48:15,11:48:55,50585,50739,16285.0,21,16290.0,29,16285.0,16285.0,16275.0,16275.0,143,-77,16275,12,16280,17
2016-07-13 11:49:00,11:49:01,11:49:51,50750,50916,16275.0,26,16280.0,7,16280.0,16285.0,16280.0,16285.0,124,-15,16285,6,16290,22
2016-07-13 11:50:00,11:50:04,11:50:47,50934,51059,16285.0,60,16290.0,13,16290.0,16290.0,16280.0,16280.0,140,-68,16280,49,16285,17
2016-07-13 11:51:00,11:51:05,11:51:58,51072,51277,16280.0,47,16285.0,33,16285.0,16295.0,16280.0,16295.0,215,-40,16295,13,16300,26
2016-07-13 11:52:00,11:52:01,11:52:55,51287,51469,16295.0,51,16300.0,18,16300.0,16305.0,16295.0,16300.0,221,-111,16295,21,16300,10
2016-07-13 11:53:00,11:53:33,11:53:59,51513,51588,16295.0,26,16300.0,34,16295.0,16300.0,16295.0,16300.0,54,44,16295,30,16300,5
2016-07-13 11:54:00,11:54:00,11:54:57,51591,51763,16295.0,30,16300.0,5,16300.0,16310.0,16300.0,16310.0,90,24,16305,24,16310,5
2016-07-13 11:55:00,11:55:01,11:55:58,51774,51876,16305.0,22,16310.0,6,16305.0,16315.0,16305.0,16310.0,33,9,16310,23,16315,29
2016-07-13 11:56:00,11:56:05,11:56:56,51888,52036,16310.0,22,16315.0,27,16310.0,16315.0,16310.0,16310.0,120,-27,16305,17,16310,4
2016-07-13 11:57:00,11:57:03,11:57:58,52046,52142,16305.0,8,16310.0,17,16305.0,16305.0,16300.0,16300.0,43,5,16300,21,16305,32
2016-07-13 11:58:00,11:58:19,11:58:59,52161,52256,16300.0,23,16305.0,34,16305.0,16305.0,16285.0,16290.0,71,-9,16285,18,16290,8
2016-07-13 11:59:00,11:59:00,11:59:58,52257,52384,16285.0,21,16290.0,23,16290.0,16295.0,16285.0,16290.0,62,-2,16290,3,16295,19
2016-07-13 12:00:00,12:00:00,12:00:54,52389,52497,16290.0,7,16295.0,21,16295.0,16295.0,16295.0,16295.0,61,1,16295,20,16300,18
2016-07-13 12:01:00,12:01:01,12:01:55,52507,52637,16295.0,16,16300.0,27,16295.0,16295.0,16290.0,16295.0,74,-4,16290,14,16295,10
2016-07-13 12:02:00,12:02:02,12:02:54,52653,52772,16290.0,15,16295.0,13,16295.0,16295.0,16280.0,16280.0,129,-1,16280,47,16285,17
2016-07-13 12:03:00,12:03:25,12:03:51,52793,52843,16280.0,47,16285.0,17,16285.0,16290.0,16280.0,16280.0,32,30,16280,51,16285,15
2016-07-13 12:04:00,12:04:03,12:04:57,52858,53016,16280.0,29,16285.0,27,16285.0,16285.0,16270.0,16285.0,114,-10,16285,10,16290,23
2016-07-13 12:05:00,12:05:01,12:05:35,53020,53093,16285.0,6,16290.0,23,16285.0,16290.0,16285.0,16290.0,34,20,16285,18,16290,12
2016-07-13 12:06:00,12:06:09,12:06:58,53115,53205,16285.0,22,16290.0,25,16290.0,16290.0,16280.0,16285.0,54,-6,16280,28,16285,1
2016-07-13 12:07:00,12:07:29,12:07:52,53223,53244,16280.0,28,16285.0,11,16285.0,16285.0,16285.0,16285.0,11,11,16285,5,16290,24
2016-07-13 12:08:00,12:08:06,12:08:49,53264,53418,16285.0,22,16290.0,23,16285.0,16295.0,16285.0,16290.0,131,-17,16285,22,16290,9
2016-07-13 12:09:00,12:09:04,12:09:59,53439,53774,16285.0,14,16290.0,13,16290.0,16290.0,16245.0,16255.0,298,-175,16255,13,16260,18
2016-07-13 12:10:00,12:10:00,12:10:51,53775,54013,16250.0,27,16255.0,2,16255.0,16260.0,16250.0,16250.0,171,28,16250,11,16255,50
2016-07-13 12:11:00,12:11:13,12:11:59,54028,54165,16250.0,18,16255.0,51,16250.0,16250.0,16240.0,16245.0,116,-83,16240,22,16245,21
2016-07-13 12:12:00,12:12:02,12:12:53,54173,54447,16240.0,22,16245.0,20,16245.0,16260.0,16245.0,16255.0,289,114,16255,16,16260,30
2016-07-13 12:13:00,12:13:15,12:13:56,54472,54639,16255.0,20,16260.0,29,16255.0,16255.0,16250.0,16250.0,139,-37,16250,7,16255,28
2016-07-13 12:14:00,12:14:00,12:14:55,54646,54795,16250.0,8,16255.0,36,16250.0,16250.0,16240.0,16245.0,80,-13,16245,12,16250,29
2016-07-13 12:15:00,12:15:02,12:15:58,54807,54996,16245.0,16,16250.0,32,16245.0,16245.0,16240.0,16240.0,155,-75,16240,5,16245,34
2016-07-13 12:16:00,12:16:01,12:16:53,55003,55130,16240.0,3,16245.0,37,16240.0,16240.0,16235.0,16235.0,36,-8,16235,15,16240,31
2016-07-13 12:17:00,12:17:01,12:17:52,55144,55303,16235.0,22,16240.0,21,16240.0,16240.0,16230.0,16230.0,98,14,16230,14,16235,30
2016-07-13 12:18:00,12:18:17,12:18:59,55325,55385,16230.0,29,16235.0,9,16235.0,16235.0,16230.0,16235.0,15,-1,16230,24,16235,16
2016-07-13 12:19:00,12:19:02,12:19:49,55391,55508,16230.0,26,16235.0,15,16235.0,16245.0,16235.0,16245.0,61,41,16240,22,16245,20
2016-07-13 12:20:00,12:20:03,12:20:54,55520,55660,16240.0,23,16245.0,18,16240.0,16245.0,16240.0,16240.0,100,42,16235,23,16240,6
2016-07-13 12:21:00,12:21:02,12:21:57,55671,55790,16235.0,22,16240.0,10,16235.0,16235.0,16230.0,16230.0,78,-36,16230,32,16235,23
2016-07-13 12:22:00,12:22:21,12:22:59,55802,55834,16230.0,32,16235.0,23,16235.0,16235.0,16230.0,16230.0,8,4,16230,29,16235,16
2016-07-13 12:23:00,12:23:03,12:23:54,55838,55980,16230.0,29,16235.0,17,16230.0,16230.0,16220.0,16225.0,103,-37,16220,20,16225,14
2016-07-13 12:24:00,12:24:01,12:24:52,55995,56142,16220.0,15,16225.0,15,16225.0,16230.0,16215.0,16230.0,119,1,16230,24,16235,26
2016-07-13 12:25:00,12:25:10,12:25:59,56168,56302,16230.0,29,16235.0,26,16235.0,16240.0,16235.0,16240.0,108,40,16240,5,16245,51
2016-07-13 12:26:00,12:26:00,12:26:59,56305,56461,16240.0,5,16245.0,51,16240.0,16250.0,16240.0,16250.0,129,20,16245,40,16255,43
2016-07-13 12:27:00,12:27:00,12:27:54,56466,56610,16250.0,3,16255.0,40,16250.0,16250.0,16250.0,16250.0,70,-17,16245,50,16255,37
2016-07-13 12:28:00,12:28:04,12:28:53,56625,56754,16250.0,18,16255.0,38,16250.0,16260.0,16250.0,16250.0,74,-15,16250,18,16255,19
2016-07-13 12:29:00,12:29:07,12:29:49,56764,56856,16250.0,23,16255.0,19,16255.0,16260.0,16255.0,16260.0,86,80,16255,44,16265,23
2016-07-13 12:30:00,12:30:04,12:30:55,56875,56957,16255.0,27,16260.0,32,16255.0,16255.0,16245.0,16245.0,65,-65,16240,14,16245,17
2016-07-13 12:31:00,12:31:11,12:31:48,56985,57092,16240.0,16,16245.0,32,16240.0,16240.0,16235.0,16240.0,78,-10,16235,22,16240,10
2016-07-13 12:32:00,12:32:09,12:32:48,57119,57247,16235.0,21,16240.0,23,16240.0,16245.0,16235.0,16235.0,80,33,16230,26,16235,4
2016-07-13 12:33:00,12:33:14,12:33:59,57280,57518,16230.0,23,16235.0,19,16230.0,16230.0,16215.0,16215.0,265,-71,16215,97,16220,18
2016-07-13 12:34:00,12:34:05,12:34:59,57530,57661,16215.0,89,16220.0,23,16215.0,16220.0,16210.0,16215.0,141,-99,16215,22,16220,32
2016-07-13 12:35:00,12:35:05,12:35:50,57677,57818,16215.0,25,16220.0,38,16220.0,16220.0,16210.0,16210.0,84,-24,16210,18,16215,16
2016-07-13 12:36:00,12:36:02,12:36:59,57840,58333,16210.0,18,16215.0,23,16210.0,16210.0,16180.0,16195.0,666,-197,16190,27,16195,20
2016-07-13 12:37:00,12:37:00,12:37:59,58338,58577,16190.0,21,16195.0,26,16195.0,16195.0,16190.0,16195.0,176,32,16195,9,16200,60
2016-07-13 12:38:00,12:38:00,12:38:58,58582,58750,16195.0,13,16200.0,50,16195.0,16195.0,16190.0,16190.0,108,-6,16190,15,16195,45
2016-07-13 12:39:00,12:39:04,12:39:57,58766,59148,16190.0,40,16195.0,45,16195.0,16215.0,16190.0,16205.0,437,145,16200,49,16205,3
2016-07-13 12:40:00,12:40:03,12:40:59,59160,59448,16200.0,34,16205.0,72,16205.0,16220.0,16195.0,16220.0,348,120,16220,14,16225,23
2016-07-13 12:41:00,12:41:01,12:41:47,59451,59628,16220.0,18,16225.0,18,16220.0,16220.0,16205.0,16205.0,104,-16,16200,29,16205,10
2016-07-13 12:42:00,12:42:18,12:42:55,59663,59816,16200.0,128,16205.0,20,16205.0,16205.0,16195.0,16200.0,231,-63,16200,5,16205,38
2016-07-13 12:43:00,12:43:00,12:43:52,59829,59966,16200.0,23,16205.0,27,16205.0,16210.0,16205.0,16210.0,134,-11,16210,7,16215,28
2016-07-13 12:44:00,12:44:00,12:44:59,59981,60080,16210.0,10,16215.0,25,16210.0,16215.0,16210.0,16210.0,45,18,16210,21,16215,26
2016-07-13 12:45:00,12:45:01,12:45:53,60084,60249,16210.0,18,16215.0,26,16215.0,16215.0,16205.0,16210.0,106,16,16205,15,16215,22
2016-07-13 12:46:00,12:46:05,12:46:50,60273,60479,16210.0,23,16215.0,22,16215.0,16230.0,16210.0,16225.0,184,101,16220,19,16225,22
2016-07-13 12:47:00,12:47:19,12:47:59,60504,60743,16220.0,29,16225.0,18,16225.0,16245.0,16225.0,16230.0,297,169,16225,22,16230,5
2016-07-13 12:48:00,12:48:03,12:48:40,60750,60842,16225.0,19,16230.0,1,16230.0,16235.0,16230.0,16230.0,56,6,16230,7,16235,31
2016-07-13 12:49:00,12:49:04,12:49:42,60881,60989,16230.0,25,16235.0,28,16235.0,16235.0,16230.0,16230.0,87,-7,16225,23,16230,7
2016-07-13 12:50:00,12:50:03,12:50:49,61022,61176,16225.0,18,16230.0,28,16225.0,16230.0,16215.0,16230.0,101,-27,16225,25,16230,6
2016-07-13 12:51:00,12:51:02,12:51:57,61199,61552,16225.0,25,16230.0,15,16230.0,16255.0,16225.0,16255.0,485,204,16250,33,16255,5
2016-07-13 12:52:00,12:52:03,12:52:56,61565,61738,16250.0,30,16255.0,17,16255.0,16265.0,16250.0,16260.0,144,57,16255,23,16260,14
2016-07-13 12:53:00,12:53:02,12:53:56,61745,61970,16255.0,26,16260.0,6,16260.0,16260.0,16245.0,16255.0,183,-26,16250,30,16260,28
2016-07-13 12:54:00,12:54:07,12:54:56,61985,62135,16255.0,14,16260.0,20,16255.0,16255.0,16245.0,16245.0,96,-49,16240,30,16245,9
2016-07-13 12:55:00,12:55:01,12:55:55,62146,62351,16240.0,24,16245.0,19,16245.0,16250.0,16240.0,16240.0,126,2,16240,28,16245,16
2016-07-13 12:56:00,12:56:00,12:56:39,62362,62456,16240.0,21,16245.0,11,16245.0,16245.0,16240.0,16245.0,62,-3,16245,8,16250,21
2016-07-13 12:57:00,12:57:05,12:57:59,62495,62589,16245.0,25,16250.0,17,16250.0,16255.0,16250.0,16250.0,64,12,16250,10,16255,25
2016-07-13 12:58:00,12:58:00,12:58:54,62595,62754,16250.0,20,16255.0,27,16255.0,16255.0,16245.0,16245.0,106,-16,16245,4,16250,25
2016-07-13 12:59:00,12:59:01,12:59:51,62766,62835,16245.0,7,16250.0,28,16245.0,16250.0,16245.0,16245.0,18,6,16245,15,16250,18
2016-07-13 13:00:00,13:00:01,13:00:53,62843,63144,16245.0,14,16250.0,23,16245.0,16245.0,16220.0,16230.0,245,-55,16225,21,16230,5
2016-07-13 13:01:00,13:01:03,13:01:57,63163,63329,16225.0,22,16230.0,10,16230.0,16230.0,16225.0,16230.0,78,-28,16225,28,16235,22
2016-07-13 13:02:00,13:02:04,13:02:58,63339,63481,16230.0,21,16235.0,20,16235.0,16240.0,16235.0,16235.0,83,18,16235,6,16240,36
2016-07-13 13:03:00,13:03:00,13:03:51,63483,63551,16235.0,6,16240.0,34,16235.0,16235.0,16230.0,16235.0,34,-7,16230,26,16235,10
2016-07-13 13:04:00,13:04:17,13:04:44,63572,63715,16230.0,26,16235.0,13,16235.0,16245.0,16235.0,16240.0,122,-29,16235,20,16240,6
2016-07-13 13:05:00,13:05:07,13:05:59,63733,63886,16235.0,25,16240.0,12,16235.0,16235.0,16225.0,16230.0,93,-43,16225,28,16230,8
2016-07-13 13:06:00,13:06:13,13:06:40,63906,63995,16225.0,26,16230.0,25,16225.0,16225.0,16225.0,16225.0,53,9,16225,10,16230,26
2016-07-13 13:07:00,13:07:16,13:07:38,64021,64090,16225.0,18,16230.0,26,16230.0,16235.0,16230.0,16235.0,50,8,16230,24,16235,9
2016-07-13 13:08:00,13:08:03,13:08:59,64120,64250,16230.0,13,16235.0,28,16230.0,16230.0,16220.0,16220.0,93,-60,16215,38,16225,29
2016-07-13 13:09:00,13:09:00,13:09:59,64256,64410,16220.0,3,16225.0,21,16220.0,16240.0,16220.0,16240.0,112,90,16235,34,16240,6
2016-07-13 13:10:00,13:10:02,13:10:46,64419,64609,16235.0,15,16240.0,26,16240.0,16245.0,16240.0,16240.0,167,58,16235,22,16240,11
2016-07-13 13:11:00,13:11:01,13:11:52,64631,64746,16235.0,21,16240.0,17,16240.0,16240.0,16230.0,16230.0,82,-2,16225,34,16230,2
2016-07-13 13:12:00,13:12:07,13:12:55,64760,64885,16225.0,32,16230.0,9,16230.0,16235.0,16230.0,16230.0,76,28,16225,20,16230,3
2016-07-13 13:13:00,13:13:04,13:13:55,64897,65016,16225.0,16,16230.0,16,16225.0,16230.0,16225.0,16230.0,54,-10,16225,17,16230,16
2016-07-13 13:14:00,13:14:04,13:14:55,65030,65115,16225.0,20,16230.0,16,16230.0,16230.0,16230.0,16230.0,53,27,16225,31,16230,2
2016-07-13 13:15:00,13:15:10,13:15:59,65133,65291,16225.0,29,16230.0,9,16230.0,16230.0,16220.0,16220.0,112,-32,16215,22,16220,12
2016-07-13 13:16:00,13:16:01,13:16:58,65298,65445,16215.0,10,16220.0,20,16215.0,16220.0,16215.0,16215.0,95,33,16215,2,16220,20
2016-07-13 13:17:00,13:17:01,13:17:46,65452,65533,16210.0,34,16215.0,6,16215.0,16220.0,16215.0,16215.0,54,-36,16210,27,16215,9
2016-07-13 13:18:00,13:18:10,13:18:55,65555,65671,16210.0,25,16215.0,35,16210.0,16215.0,16205.0,16215.0,95,11,16210,16,16215,6
2016-07-13 13:19:00,13:19:01,13:19:58,65681,65841,16210.0,18,16215.0,12,16215.0,16215.0,16210.0,16215.0,96,32,16210,23,16215,3
2016-07-13 13:20:00,13:20:23,13:20:49,65866,65950,16210.0,22,16215.0,19,16210.0,16215.0,16205.0,16205.0,54,10,16205,30,16210,20
2016-07-13 13:21:00,13:21:05,13:21:55,65964,66143,16205.0,41,16210.0,19,16210.0,16225.0,16210.0,16225.0,141,101,16220,31,16225,4
2016-07-13 13:22:00,13:22:07,13:22:53,66153,66325,16220.0,36,16225.0,2,16225.0,16235.0,16225.0,16235.0,145,61,16230,30,16235,15
2016-07-13 13:23:00,13:23:02,13:23:54,66333,66493,16230.0,32,16235.0,13,16230.0,16230.0,16215.0,16215.0,134,-106,16215,19,16220,29
2016-07-13 13:24:00,13:24:08,13:24:59,66512,66665,16215.0,16,16220.0,46,16215.0,16225.0,16215.0,16225.0,85,-19,16220,25,16225,22
2016-07-13 13:25:00,13:25:08,13:25:55,66673,66835,16220.0,22,16225.0,25,16220.0,16225.0,16220.0,16225.0,107,-35,16220,22,16225,9
2016-07-13 13:26:00,13:26:07,13:26:57,66845,66976,16220.0,25,16225.0,7,16225.0,16235.0,16225.0,16235.0,93,64,16230,20,16235,25
2016-07-13 13:27:00,13:27:02,13:27:59,66982,67128,16230.0,17,16235.0,25,16230.0,16235.0,16230.0,16235.0,97,13,16230,34,16240,24
2016-07-13 13:28:00,13:28:01,13:28:59,67133,67316,16230.0,28,16240.0,33,16235.0,16240.0,16230.0,16240.0,132,23,16235,24,16240,6
2016-07-13 13:29:00,13:29:00,13:29:52,67319,67569,16235.0,24,16240.0,6,16240.0,16250.0,16235.0,16240.0,215,58,16235,19,16240,16
2016-07-13 13:30:00,13:30:13,13:30:59,67600,67722,16235.0,23,16240.0,24,16240.0,16240.0,16240.0,16240.0,79,57,16235,21,16240,13
2016-07-13 13:31:00,13:31:06,13:31:59,67735,67871,16235.0,19,16240.0,27,16235.0,16240.0,16235.0,16240.0,111,-76,16235,15,16240,23
2016-07-13 13:32:00,13:32:14,13:32:52,67884,67955,16235.0,8,16240.0,21,16240.0,16240.0,16235.0,16235.0,55,35,16235,9,16240,28
2016-07-13 13:33:00,13:33:05,13:33:57,67971,68043,16235.0,20,16240.0,25,16240.0,16245.0,16240.0,16245.0,42,16,16240,32,16245,45
2016-07-13 13:34:00,13:34:00,13:34:59,68048,68204,16240.0,36,16245.0,44,16245.0,16250.0,16245.0,16250.0,142,94,16245,31,16250,13
2016-07-13 13:35:00,13:35:09,13:35:51,68231,68403,16245.0,41,16250.0,9,16250.0,16255.0,16250.0,16250.0,167,-1,16245,32,16250,11
2016-07-13 13:36:00,13:36:03,13:36:34,68420,68513,16245.0,31,16250.0,14,16245.0,16250.0,16240.0,16250.0,85,-29,16245,15,16250,18
2016-07-13 13:37:00,13:37:04,13:37:43,68550,68660,16245.0,31,16250.0,19,16250.0,16250.0,16240.0,16240.0,51,-33,16235,53,16240,19
2016-07-13 13:38:00,13:38:00,13:38:58,68682,68822,16235.0,47,16240.0,26,16240.0,16245.0,16235.0,16235.0,108,-28,16230,17,16235,21
2016-07-13 13:39:00,13:39:07,13:39:48,68838,68912,16230.0,35,16235.0,9,16235.0,16240.0,16235.0,16240.0,39,19,16235,16,16240,32
2016-07-13 13:40:00,13:40:00,13:40:39,68928,69026,16235.0,16,16240.0,40,16235.0,16235.0,16235.0,16235.0,65,-11,16230,28,16240,37
2016-07-13 13:41:00,13:41:15,13:41:56,69054,69129,16230.0,29,16235.0,5,16235.0,16245.0,16235.0,16245.0,28,28,16240,45,16245,22
2016-07-13 13:42:00,13:42:00,13:42:52,69133,69270,16240.0,42,16245.0,22,16245.0,16255.0,16245.0,16250.0,111,99,16250,38,16255,27
2016-07-13 13:43:00,13:43:01,13:43:50,69285,69490,16250.0,36,16255.0,46,16250.0,16255.0,16250.0,16250.0,162,17,16250,19,16255,50
2016-07-13 13:44:00,13:44:07,13:44:54,69512,69680,16250.0,38,16255.0,56,16250.0,16250.0,16240.0,16240.0,147,4,16235,35,16240,11
2016-07-13 13:45:00,13:45:04,13:45:55,69695,69924,16235.0,45,16240.0,25,16240.0,16240.0,16225.0,16225.0,245,-13,16220,16,16225,34
2016-07-13 13:46:00,13:46:10,13:46:58,69938,70113,16220.0,24,16225.0,45,16220.0,16230.0,16220.0,16230.0,163,55,16225,28,16230,41
2016-07-13 13:47:00,13:47:14,13:47:58,70135,70275,16225.0,36,16230.0,18,16230.0,16235.0,16230.0,16235.0,97,-1,16230,24,16235,41
2016-07-13 13:48:00,13:48:00,13:48:59,70283,70477,16230.0,42,16235.0,36,16235.0,16235.0,16225.0,16225.0,198,-100,16220,46,16225,2
2016-07-13 13:49:00,13:49:00,13:49:50,70480,70703,16220.0,46,16225.0,2,16225.0,16225.0,16220.0,16220.0,229,-3,16215,42,16225,43
2016-07-13 13:50:00,13:50:00,13:50:59,70717,70882,16215.0,39,16220.0,13,16220.0,16225.0,16220.0,16225.0,93,87,16220,28,16225,36
2016-07-13 13:51:00,13:51:03,13:51:59,70890,71099,16220.0,30,16225.0,40,16220.0,16220.0,16210.0,16215.0,140,-34,16210,48,16215,17
2016-07-13 13:52:00,13:52:00,13:52:59,71103,71287,16210.0,48,16215.0,20,16215.0,16215.0,16200.0,16205.0,249,-202,16200,27,16205,92
2016-07-13 13:53:00,13:53:01,13:53:59,71290,71492,16200.0,27,16205.0,92,16200.0,16205.0,16190.0,16195.0,214,-142,16190,68,16195,31
2016-07-13 13:54:00,13:54:00,13:54:56,71495,71653,16190.0,68,16195.0,31,16195.0,16205.0,16195.0,16195.0,126,-14,16195,42,16200,27
2016-07-13 13:55:00,13:55:00,13:55:59,71664,71941,16195.0,34,16200.0,55,16200.0,16200.0,16185.0,16190.0,287,42,16185,58,16190,2
2016-07-13 13:56:00,13:56:00,13:56:56,71945,72201,16185.0,58,16190.0,7,16185.0,16190.0,16180.0,16190.0,265,-6,16190,36,16195,69
2016-07-13 13:57:00,13:57:05,13:57:58,72218,72420,16190.0,44,16195.0,70,16195.0,16195.0,16190.0,16195.0,205,79,16195,28,16200,71
2016-07-13 13:58:00,13:58:04,13:58:59,72434,72698,16195.0,46,16200.0,62,16200.0,16200.0,16190.0,16195.0,243,91,16195,16,16200,63
2016-07-13 13:59:00,13:59:00,13:59:59,72703,73172,16195.0,18,16200.0,68,16195.0,16210.0,16190.0,16205.0,522,8,16205,9,16210,73
2016-07-13 14:00:00,14:00:00,14:00:54,73173,74322,16205.0,92,16210.0,58,16205.0,16260.0,16200.0,16255.0,2113,288,16250,69,16255,16
2016-07-13 14:01:00,14:01:00,14:01:58,74336,74649,16250.0,60,16255.0,57,16255.0,16255.0,16235.0,16235.0,351,-137,16230,66,16235,4
2016-07-13 14:02:00,14:02:00,14:02:49,74652,74890,16230.0,66,16235.0,4,16235.0,16240.0,16235.0,16235.0,257,25,16235,46,16240,60
2016-07-13 14:03:00,14:03:00,14:03:54,74905,75208,16235.0,75,16240.0,51,16240.0,16240.0,16225.0,16225.0,501,-37,16220,59,16230,56
2016-07-13 14:04:00,14:04:00,14:04:58,75218,75356,16225.0,29,16230.0,58,16230.0,16240.0,16230.0,16235.0,113,49,16235,9,16235,29
2016-07-13 14:05:00,14:05:00,14:05:56,75358,75614,16230.0,66,16235.0,29,16235.0,16245.0,16235.0,16240.0,399,73,16235,49,16240,32
2016-07-13 14:06:00,14:06:02,14:06:54,75625,75793,16230.0,60,16235.0,11,16235.0,16240.0,16230.0,16235.0,137,59,16235,12,16240,60
2016-07-13 14:07:00,14:07:02,14:07:49,75809,75980,16235.0,38,16240.0,46,16240.0,16240.0,16230.0,16230.0,217,3,16230,25,16235,72
2016-07-13 14:08:00,14:08:02,14:08:56,76004,76293,16230.0,67,16235.0,72,16235.0,16240.0,16220.0,16220.0,468,98,16220,35,16225,29
2016-07-13 14:09:00,14:09:01,14:09:59,76298,76595,16220.0,39,16225.0,45,16225.0,16225.0,16210.0,16220.0,440,-80,16215,106,16225,43
