,ST,ET,sidx,eidx,bB,bBS,bA,bAS,O,H,L,C,V,OF,eB,eBS,eA,eAS
2016-11-09 08:00:00,08:00:00,08:00:50,3762,4163,17295.0,10,17300.0,37,17295.0,17310.0,17295.0,17305.0,511,74,17300,27,17305,2
2016-11-09 08:01:00,08:01:03,08:01:59,4179,4501,17300.0,21,17305.0,17,17305.0,17305.0,17290.0,17305.0,382,42,17300,81,17310,40
2016-11-09 08:02:00,08:02:00,08:02:59,4505,4734,17305.0,2,17310.0,40,17305.0,17310.0,17300.0,17300.0,326,-76,17300,2,17305,55
2016-11-09 08:03:00,08:03:02,08:03:51,4746,5038,17300.0,10,17305.0,54,17300.0,17305.0,17290.0,17290.0,356,1,17285,26,17290,12
2016-11-09 08:04:00,08:04:02,08:04:57,5069,5378,17285.0,27,17290.0,32,17290.0,17315.0,17290.0,17315.0,419,267,17310,24,17315,18
2016-11-09 08:05:00,08:05:05,08:05:52,5392,5567,17310.0,36,17315.0,31,17310.0,17315.0,17305.0,17305.0,168,40,17305,20,17310,50
2016-11-09 08:06:00,08:06:05,08:06:59,5578,5989,17305.0,25,17310.0,54,17310.0,17310.0,17270.0,17280.0,496,-203,17275,8,17280,27
2016-11-09 08:07:00,08:07:00,08:07:57,5990,6765,17275.0,24,17285.0,27,17275.0,17300.0,17270.0,17300.0,913,-36,17295,29,17305,28
2016-11-09 08:08:00,08:08:00,08:08:56,6775,7138,17300.0,22,17305.0,31,17300.0,17310.0,17300.0,17305.0,344,-130,17300,42,17305,17
2016-11-09 08:09:00,08:09:00,08:09:58,7149,7366,17300.0,42,17305.0,23,17305.0,17305.0,17300.0,17300.0,188,-42,17295,34,17300,59
2016-11-09 08:10:00,08:10:03,08:10:53,7380,7596,17295.0,40,17300.0,43,17295.0,17300.0,17295.0,17300.0,195,-5,17295,42,17300,18
2016-11-09 08:11:00,08:11:18,08:11:56,7649,7841,17295.0,43,17300.0,29,17300.0,17305.0,17300.0,17300.0,229,-71,17295,50,17300,19
2016-11-09 08:12:00,08:12:00,08:12:57,7852,8233,17295.0,49,17300.0,7,17300.0,17315.0,17300.0,17310.0,417,77,17305,70,17310,24
2016-11-09 08:13:00,08:13:01,08:13:59,8244,8691,17305.0,73,17310.0,23,17310.0,17315.0,17300.0,17300.0,465,-142,17300,1,17305,44
2016-11-09 08:14:00,08:14:00,08:14:59,8696,9467,17295.0,44,17300.0,29,17295.0,17305.0,17285.0,17295.0,1017,-20,17290,30,17295,63
2016-11-09 08:15:00,08:15:00,08:15:56,9472,10187,17290.0,33,17295.0,57,17290.0,17300.0,17285.0,17290.0,986,55,17290,35,17295,31
2016-11-09 08:16:00,08:16:02,08:16:54,10202,10576,17290.0,33,17295.0,29,17290.0,17305.0,17290.0,17305.0,345,24,17300,34,17305,5
2016-11-09 08:17:00,08:17:00,08:17:53,10591,10940,17300.0,30,17305.0,58,17305.0,17320.0,17305.0,17310.0,330,76,17310,18,17315,37
2016-11-09 08:18:00,08:18:09,08:18:56,10985,11251,17310.0,16,17315.0,37,17310.0,17315.0,17305.0,17310.0,221,-36,17310,21,17315,33
2016-11-09 08:19:00,08:19:00,08:19:59,11266,11810,17310.0,8,17315.0,35,17310.0,17320.0,17305.0,17315.0,571,-47,17310,30,17315,21
2016-11-09 08:20:00,08:20:00,08:20:56,11814,12304,17310.0,30,17315.0,16,17315.0,17315.0,17290.0,17315.0,486,-92,17310,36,17315,3
2016-11-09 08:21:00,08:21:02,08:21:59,12321,13169,17310.0,37,17315.0,36,17310.0,17310.0,17270.0,17270.0,1054,-284,17270,15,17275,36
2016-11-09 08:22:00,08:22:00,08:22:59,13174,13671,17270.0,40,17275.0,23,17275.0,17280.0,17250.0,17265.0,580,93,17260,34,17265,9
2016-11-09 08:23:00,08:23:00,08:23:58,13674,14120,17260.0,34,17265.0,9,17265.0,17270.0,17260.0,17270.0,351,42,17265,53,17275,38
2016-11-09 08:24:00,08:24:00,08:24:57,14128,14484,17265.0,51,17270.0,27,17265.0,17270.0,17260.0,17270.0,297,-88,17265,26,17270,20
2016-11-09 08:25:00,08:25:00,08:25:59,14489,14971,17265.0,33,17270.0,18,17270.0,17290.0,17255.0,17290.0,456,125,17285,71,17295,36
2016-11-09 08:26:00,08:26:00,08:26:58,14974,15356,17285.0,71,17295.0,36,17290.0,17300.0,17285.0,17300.0,353,19,17295,26,17300,11
2016-11-09 08:27:00,08:27:00,08:27:51,15366,15696,17295.0,19,17300.0,30,17300.0,17300.0,17290.0,17295.0,268,-3,17290,33,17295,8
2016-11-09 08:28:00,08:28:03,08:28:54,15718,15975,17290.0,32,17295.0,20,17295.0,17305.0,17295.0,17300.0,196,34,17300,3,17305,28
2016-11-09 08:29:00,08:29:00,08:29:59,15982,16264,17300.0,16,17305.0,28,17305.0,17305.0,17290.0,17305.0,246,-63,17300,39,17305,24
2016-11-09 08:30:00,08:30:03,08:30:55,16271,16422,17300.0,38,17305.0,25,17305.0,17305.0,17300.0,17300.0,84,-59,17300,22,17305,35
2016-11-09 08:31:00,08:31:01,08:31:59,16436,16913,17300.0,24,17305.0,33,17300.0,17305.0,17285.0,17290.0,450,-181,17285,22,17290,12
2016-11-09 08:32:00,08:32:01,08:32:55,16921,17216,17285.0,29,17290.0,17,17290.0,17295.0,17285.0,17290.0,172,73,17290,23,17295,20
2016-11-09 08:33:00,08:33:09,08:33:58,17255,17473,17290.0,15,17295.0,28,17290.0,17295.0,17280.0,17295.0,129,-16,17290,29,17300,31
2016-11-09 08:34:00,08:34:01,08:34:57,17481,17661,17290.0,16,17295.0,35,17290.0,17290.0,17280.0,17280.0,74,-48,17275,19,17280,40
2016-11-09 08:35:00,08:35:00,08:35:54,17670,18197,17275.0,26,17280.0,29,17280.0,17295.0,17280.0,17280.0,621,-138,17275,24,17280,22
2016-11-09 08:36:00,08:36:01,08:36:57,18213,18553,17275.0,25,17280.0,24,17280.0,17280.0,17265.0,17270.0,395,-116,17270,35,17275,21
2016-11-09 08:37:00,08:37:00,08:37:59,18564,18937,17270.0,34,17275.0,19,17275.0,17275.0,17255.0,17255.0,325,-44,17250,101,17255,19
2016-11-09 08:38:00,08:38:00,08:38:54,18942,19277,17250.0,102,17255.0,26,17250.0,17260.0,17245.0,17260.0,335,-139,17255,27,17260,3
2016-11-09 08:39:00,08:39:08,08:39:59,19312,19679,17255.0,8,17260.0,36,17255.0,17260.0,17245.0,17255.0,404,92,17250,38,17260,36
2016-11-09 08:40:00,08:40:05,08:40:56,19696,19954,17250.0,34,17255.0,17,17255.0,17255.0,17240.0,17245.0,215,-113,17245,4,17250,35
2016-11-09 08:41:00,08:41:07,08:41:51,19979,20278,17240.0,21,17245.0,35,17245.0,17250.0,17220.0,17220.0,309,-121,17220,5,17225,47
2016-11-09 08:42:00,08:42:00,08:42:56,20308,20832,17220.0,13,17225.0,55,17220.0,17225.0,17210.0,17215.0,560,210,17215,29,17220,21
2016-11-09 08:43:00,08:43:00,08:43:59,20840,21488,17215.0,26,17220.0,28,17215.0,17215.0,17125.0,17130.0,810,-472,17130,45,17135,32
2016-11-09 08:44:00,08:44:00,08:44:59,21491,22375,17130.0,45,17135.0,32,17130.0,17165.0,17120.0,17165.0,1074,-2,17165,27,17165,2
2016-11-09 08:45:00,08:45:00,08:45:59,22377,22940,17160.0,56,17165.0,2,17165.0,17180.0,17135.0,17135.0,607,-174,17130,25,17135,11
2016-11-09 08:46:00,08:46:00,08:46:57,22943,23806,17130.0,25,17135.0,11,17130.0,17135.0,17085.0,17105.0,1100,63,17105,6,17110,25
2016-11-09 08:47:00,08:47:00,08:47:54,23819,24435,17105.0,33,17110.0,4,17105.0,17115.0,17100.0,17105.0,727,-67,17105,12,17110,29
2016-11-09 08:48:00,08:48:01,08:48:59,24452,25502,17105.0,22,17110.0,24,17105.0,17200.0,17095.0,17200.0,1205,257,17195,15,17200,7
2016-11-09 08:49:00,08:49:00,08:49:59,25503,26458,17195.0,21,17205.0,22,17200.0,17255.0,17170.0,17195.0,1200,112,17195,13,17200,62
2016-11-09 08:50:00,08:50:02,08:50:59,26465,26956,17195.0,22,17200.0,61,17195.0,17195.0,17155.0,17190.0,457,2,17190,13,17195,13
2016-11-09 08:51:00,08:51:00,08:51:58,26961,27580,17190.0,14,17195.0,9,17195.0,17235.0,17195.0,17225.0,714,100,17220,28,17225,18
2016-11-09 08:52:00,08:52:00,08:52:58,27586,28004,17220.0,25,17225.0,20,17225.0,17265.0,17215.0,17255.0,420,104,17255,4,17260,18
2016-11-09 08:53:00,08:53:00,08:53:58,28012,28617,17255.0,15,17260.0,16,17260.0,17270.0,17245.0,17255.0,749,-3,17255,6,17260,20
2016-11-09 08:54:00,08:54:00,08:54:59,28622,29408,17255.0,15,17260.0,21,17260.0,17295.0,17260.0,17290.0,914,-3,17285,32,17290,6
2016-11-09 08:55:00,08:55:00,08:55:59,29411,30048,17285.0,32,17290.0,6,17290.0,17325.0,17290.0,17320.0,689,185,17315,26,17320,19
2016-11-09 08:56:00,08:56:00,08:56:56,30053,30493,17315.0,24,17320.0,23,17320.0,17320.0,17300.0,17310.0,563,242,17310,3,17315,84
2016-11-09 08:57:00,08:57:13,08:57:59,30534,31027,17310.0,24,17315.0,80,17315.0,17340.0,17310.0,17320.0,698,214,17320,6,17325,100
2016-11-09 08:58:00,08:58:00,08:58:59,31029,31706,17320.0,6,17325.0,30,17320.0,17355.0,17320.0,17340.0,955,59,17340,19,17345,19
2016-11-09 08:59:00,08:59:00,08:59:59,31707,32416,17340.0,18,17345.0,5,17340.0,17400.0,17340.0,17400.0,907,344,17395,57,17400,5
2016-11-09 09:00:00,09:00:00,09:00:59,32419,33239,17395.0,57,17400.0,5,17400.0,17430.0,17395.0,17405.0,1255,-2,17405,15,17410,26
2016-11-09 09:01:00,09:01:00,09:01:59,33244,34052,17405.0,23,17410.0,25,17410.0,17445.0,17405.0,17425.0,1195,-34,17420,47,17425,17
2016-11-09 09:02:00,09:02:00,09:02:59,34053,34632,17425.0,15,17430.0,22,17425.0,17435.0,17410.0,17420.0,700,-180,17415,18,17420,18
2016-11-09 09:03:00,09:03:01,09:03:59,34638,35065,17415.0,15,17420.0,22,17420.0,17420.0,17390.0,17410.0,499,11,17410,31,17415,20
2016-11-09 09:04:00,09:04:00,09:04:59,35070,35568,17410.0,46,17415.0,15,17415.0,17415.0,17390.0,17395.0,620,4,17390,11,17395,14
2016-11-09 09:05:00,09:05:00,09:05:59,35572,36004,17390.0,13,17395.0,14,17395.0,17415.0,17395.0,17410.0,419,-6,17410,5,17415,50
2016-11-09 09:06:00,09:06:01,09:06:59,36011,36451,17410.0,12,17415.0,55,17410.0,17410.0,17395.0,17400.0,430,-63,17395,22,17400,2
2016-11-09 09:07:00,09:07:04,09:07:58,36466,36865,17395.0,26,17400.0,37,17400.0,17400.0,17370.0,17380.0,454,12,17380,23,17385,20
2016-11-09 09:08:00,09:08:00,09:08:54,36870,37373,17380.0,23,17385.0,20,17385.0,17410.0,17380.0,17405.0,592,-8,17400,29,17405,2
2016-11-09 09:09:00,09:09:00,09:09:59,37395,37888,17405.0,21,17410.0,38,17410.0,17420.0,17410.0,17420.0,563,149,17420,17,17425,28
2016-11-09 09:10:00,09:10:00,09:10:49,37889,38238,17420.0,9,17425.0,30,17420.0,17425.0,17415.0,17425.0,357,-31,17425,7,17430,70
2016-11-09 09:11:00,09:11:04,09:11:59,38265,38515,17425.0,18,17430.0,67,17425.0,17425.0,17405.0,17405.0,200,-120,17400,24,17405,23
2016-11-09 09:12:00,09:12:04,09:12:59,38531,38955,17400.0,18,17405.0,27,17400.0,17420.0,17395.0,17410.0,443,-11,17410,1,17415,26
2016-11-09 09:13:00,09:13:00,09:13:59,38960,39487,17410.0,3,17415.0,24,17410.0,17410.0,17375.0,17380.0,535,-17,17375,28,17380,7
2016-11-09 09:14:00,09:14:00,09:14:58,39488,40463,17375.0,25,17380.0,35,17380.0,17385.0,17340.0,17360.0,1211,-33,17360,13,17365,19
2016-11-09 09:15:00,09:15:00,09:15:59,40470,41623,17360.0,14,17365.0,21,17365.0,17410.0,17355.0,17375.0,1422,-24,17375,10,17380,25
2016-11-09 09:16:00,09:16:01,09:16:47,41627,41972,17375.0,10,17380.0,26,17375.0,17380.0,17370.0,17375.0,336,-69,17375,6,17380,25
2016-11-09 09:17:00,09:17:01,09:17:57,41990,42386,17375.0,18,17380.0,22,17375.0,17380.0,17355.0,17365.0,399,-35,17365,13,17370,20
2016-11-09 09:18:00,09:18:00,09:18:57,42395,42938,17365.0,20,17370.0,16,17365.0,17395.0,17360.0,17380.0,592,-42,17380,4,17385,36
2016-11-09 09:19:00,09:19:01,09:19:58,42949,43410,17380.0,8,17385.0,34,17380.0,17390.0,17365.0,17380.0,425,125,17375,25,17385,75
2016-11-09 09:20:00,09:20:02,09:20:33,43420,43535,17375.0,23,17380.0,12,17380.0,17380.0,17375.0,17380.0,63,5,17375,27,17380,10
2016-11-09 09:21:00,09:21:02,09:21:59,43563,44017,17375.0,25,17380.0,15,17380.0,17380.0,17340.0,17355.0,470,-17,17350,38,17355,7
2016-11-09 09:22:00,09:22:00,09:22:59,44020,44558,17350.0,38,17355.0,7,17350.0,17365.0,17345.0,17355.0,668,-315,17355,15,17360,40
2016-11-09 09:23:00,09:23:00,09:23:59,44561,44939,17355.0,15,17360.0,40,17355.0,17370.0,17350.0,17365.0,537,107,17360,30,17365,1
2016-11-09 09:24:00,09:24:00,09:24:59,44940,45357,17360.0,20,17365.0,25,17365.0,17380.0,17365.0,17365.0,351,55,17355,146,17365,14
2016-11-09 09:25:00,09:25:01,09:25:59,45360,45726,17360.0,31,17365.0,15,17360.0,17375.0,17355.0,17360.0,463,33,17355,84,17365,12
2016-11-09 09:26:00,09:26:05,09:26:47,45744,45978,17360.0,23,17365.0,10,17360.0,17365.0,17345.0,17360.0,321,-89,17360,9,17365,26
2016-11-09 09:27:00,09:27:01,09:27:59,45994,46540,17360.0,14,17365.0,28,17360.0,17360.0,17320.0,17330.0,714,188,17325,17,17330,15
2016-11-09 09:28:00,09:28:00,09:28:58,46544,46974,17325.0,21,17330.0,15,17325.0,17355.0,17325.0,17355.0,430,55,17350,17,17355,9
2016-11-09 09:29:00,09:29:03,09:29:59,46989,47194,17350.0,7,17355.0,32,17350.0,17360.0,17345.0,17345.0,126,-30,17340,42,17345,11
2016-11-09 09:30:00,09:30:04,09:30:59,47211,47468,17340.0,34,17345.0,14,17345.0,17350.0,17340.0,17345.0,239,30,17345,12,17350,25
2016-11-09 09:31:00,09:31:02,09:31:57,47476,47637,17345.0,13,17350.0,22,17350.0,17355.0,17345.0,17350.0,104,60,17350,16,17355,26
2016-11-09 09:32:00,09:32:00,09:32:59,47646,48039,17350.0,19,17355.0,21,17350.0,17380.0,17350.0,17365.0,399,137,17370,4,17375,21
2016-11-09 09:33:00,09:33:00,09:33:46,48040,48291,17365.0,5,17370.0,33,17370.0,17370.0,17350.0,17355.0,206,-20,17350,23,17355,19
2016-11-09 09:34:00,09:34:04,09:34:59,48330,48846,17350.0,22,17355.0,17,17355.0,17355.0,17330.0,17345.0,639,-100,17345,2,17345,9
2016-11-09 09:35:00,09:35:00,09:35:54,48848,49179,17345.0,2,17350.0,31,17345.0,17355.0,17340.0,17345.0,277,99,17340,29,17345,1
2016-11-09 09:36:00,09:36:01,09:36:59,49195,49537,17340.0,12,17345.0,36,17345.0,17350.0,17325.0,17325.0,308,7,17325,5,17330,24
2016-11-09 09:37:00,09:37:00,09:37:59,49546,50096,17325.0,9,17330.0,25,17325.0,17345.0,17320.0,17345.0,658,66,17340,36,17350,34
2016-11-09 09:38:00,09:38:00,09:38:59,50101,50421,17340.0,37,17345.0,3,17345.0,17345.0,17325.0,17325.0,351,-192,17320,30,17325,37
2016-11-09 09:39:00,09:39:00,09:39:41,50424,50647,17320.0,30,17325.0,37,17320.0,17335.0,17315.0,17330.0,238,-4,17330,54,17335,18
2016-11-09 09:40:00,09:40:00,09:40:59,50671,51089,17330.0,53,17335.0,19,17330.0,17340.0,17320.0,17340.0,476,-18,17340,20,17345,25
2016-11-09 09:41:00,09:41:00,09:41:59,51092,51524,17340.0,20,17345.0,25,17340.0,17340.0,17315.0,17320.0,457,-63,17315,31,17320,2
2016-11-09 09:42:00,09:42:00,09:42:59,51527,52070,17315.0,31,17320.0,2,17320.0,17320.0,17275.0,17285.0,669,-388,17285,9,17290,37
2016-11-09 09:43:00,09:43:00,09:43:56,52075,52786,17285.0,10,17290.0,33,17285.0,17305.0,17275.0,17280.0,848,-158,17275,28,17280,1
2016-11-09 09:44:00,09:44:00,09:44:57,52797,53342,17275.0,19,17280.0,30,17275.0,17290.0,17265.0,17275.0,625,-120,17270,57,17275,8
2016-11-09 09:45:00,09:45:02,09:45:55,53357,53796,17270.0,58,17275.0,23,17270.0,17275.0,17250.0,17250.0,579,-115,17250,22,17255,89
2016-11-09 09:46:00,09:46:00,09:46:59,53806,54228,17250.0,11,17255.0,89,17250.0,17260.0,17250.0,17250.0,578,-5,17250,6,17255,33
2016-11-09 09:47:00,09:47:00,09:47:59,54231,55221,17250.0,6,17255.0,33,17255.0,17295.0,17245.0,17270.0,1429,104,17265,16,17270,16
2016-11-09 09:48:00,09:48:00,09:48:59,55222,56130,17270.0,17,17275.0,21,17270.0,17270.0,17230.0,17230.0,1145,-105,17225,13,17230,49
2016-11-09 09:49:00,09:49:00,09:49:59,56131,56993,17230.0,26,17240.0,71,17230.0,17240.0,17210.0,17210.0,1288,-147,17210,9,17215,17
2016-11-09 09:50:00,09:50:00,09:50:59,56996,57821,17210.0,9,17215.0,17,17215.0,17235.0,17210.0,17225.0,1020,223,17225,11,17230,14
2016-11-09 09:51:00,09:51:00,09:51:59,57824,58817,17225.0,11,17230.0,14,17225.0,17245.0,17190.0,17210.0,1271,-38,17210,4,17215,23
2016-11-09 09:52:00,09:52:00,09:52:58,58823,59361,17210.0,20,17215.0,11,17210.0,17220.0,17200.0,17215.0,559,23,17210,30,17220,23
2016-11-09 09:53:00,09:53:00,09:53:58,59369,59787,17210.0,29,17215.0,13,17215.0,17225.0,17215.0,17220.0,393,-4,17215,29,17220,3
2016-11-09 09:54:00,09:54:00,09:54:59,59791,60553,17215.0,29,17220.0,10,17215.0,17220.0,17175.0,17185.0,824,-107,17185,5,17190,25
2016-11-09 09:55:00,09:55:00,09:55:59,60556,61233,17185.0,5,17190.0,25,17185.0,17200.0,17165.0,17190.0,848,199,17185,7,17190,29
2016-11-09 09:56:00,09:56:00,09:56:59,61234,62058,17185.0,13,17190.0,31,17190.0,17190.0,17165.0,17165.0,1002,-75,17160,30,17170,25
2016-11-09 09:57:00,09:57:00,09:57:59,62061,62870,17160.0,30,17170.0,25,17165.0,17175.0,17140.0,17155.0,1030,52,17150,24,17155,4
2016-11-09 09:58:00,09:58:00,09:58:55,62873,63414,17150.0,24,17155.0,4,17150.0,17160.0,17130.0,17145.0,639,-63,17140,24,17145,14
2016-11-09 09:59:00,09:59:00,09:59:59,63428,64016,17140.0,26,17145.0,16,17140.0,17160.0,17125.0,17125.0,634,-68,17125,5,17130,19
2016-11-09 10:00:00,10:00:00,10:00:59,64019,65252,17125.0,5,17130.0,19,17125.0,17125.0,17040.0,17105.0,1763,-583,17105,2,17110,19
2016-11-09 10:01:00,10:01:00,10:01:59,65255,66435,17105.0,2,17110.0,19,17100.0,17110.0,17030.0,17030.0,1523,16,17030,10,17035,14
2016-11-09 10:02:00,10:02:00,10:02:59,66436,67818,17030.0,7,17035.0,13,17030.0,17060.0,16985.0,17060.0,1748,-42,17055,1,17060,6
2016-11-09 10:03:00,10:03:00,10:03:58,67820,68780,17055.0,13,17060.0,6,17055.0,17080.0,17045.0,17060.0,1109,72,17055,19,17065,24
2016-11-09 10:04:00,10:04:00,10:04:59,68787,70191,17060.0,9,17065.0,23,17060.0,17080.0,17010.0,17015.0,1722,-258,17015,5,17020,13
2016-11-09 10:05:00,10:05:00,10:05:59,70194,72361,17015.0,5,17020.0,13,17015.0,17035.0,16895.0,16925.0,3108,-813,16920,22,16925,7
2016-11-09 10:06:00,10:06:00,10:06:59,72364,73625,16920.0,22,16925.0,7,16920.0,16970.0,16910.0,16960.0,1640,162,16960,5,16965,16
2016-11-09 10:07:00,10:07:00,10:07:59,73628,74905,16960.0,5,16965.0,16,16965.0,16975.0,16925.0,16975.0,1614,-21,16970,7,16975,26
2016-11-09 10:08:00,10:08:00,10:08:59,74908,75919,16970.0,7,16975.0,26,16975.0,17035.0,16970.0,17030.0,1266,386,17025,11,17030,9
2016-11-09 10:09:00,10:09:00,10:09:59,75923,76745,17025.0,9,17030.0,9,17030.0,17055.0,17005.0,17025.0,931,-34,17020,10,17025,10
2016-11-09 10:10:00,10:10:00,10:10:59,76748,77441,17020.0,10,17025.0,10,17020.0,17020.0,16960.0,17000.0,709,36,16995,14,17000,14
2016-11-09 10:11:00,10:11:00,10:11:59,77444,78051,16995.0,14,17000.0,14,16995.0,17010.0,16980.0,16985.0,547,9,16985,12,16990,9
2016-11-09 10:12:00,10:12:00,10:12:59,78054,79097,16985.0,12,16990.0,9,16985.0,16990.0,16920.0,16930.0,1251,-86,16935,8,16940,14
2016-11-09 10:13:00,10:13:00,10:13:59,79098,80143,16925.0,1,16930.0,15,16935.0,16985.0,16920.0,16920.0,1133,-182,16920,3,16925,34
2016-11-09 10:14:00,10:14:00,10:14:59,80144,81522,16925.0,10,16930.0,8,16920.0,16925.0,16865.0,16870.0,1671,-599,16870,7,16875,14
2016-11-09 10:15:00,10:15:00,10:15:59,81527,82388,16870.0,5,16875.0,15,16870.0,16905.0,16865.0,16880.0,898,137,16875,7,16880,11
2016-11-09 10:16:00,10:16:00,10:16:57,82394,83104,16875.0,11,16880.0,14,16880.0,16915.0,16880.0,16895.0,784,-104,16895,8,16900,27
2016-11-09 10:17:00,10:17:00,10:17:59,83114,83891,16895.0,12,16900.0,27,16895.0,16950.0,16880.0,16915.0,863,212,16910,18,16920,13
2016-11-09 10:18:00,10:18:01,10:18:59,83898,84478,16910.0,11,16915.0,8,16910.0,16925.0,16895.0,16900.0,551,74,16900,10,16905,14
2016-11-09 10:19:00,10:19:00,10:19:59,84481,85168,16900.0,10,16905.0,14,16900.0,16920.0,16870.0,16870.0,929,-331,16865,8,16870,6
2016-11-09 10:20:00,10:20:00,10:20:59,85172,86334,16865.0,8,16870.0,10,16865.0,16865.0,16780.0,16790.0,1799,-233,16790,9,16795,7
2016-11-09 10:21:00,10:21:00,10:21:59,86335,87877,16790.0,16,16795.0,6,16790.0,16795.0,16700.0,16720.0,2259,-255,16720,6,16730,26
2016-11-09 10:22:00,10:22:00,10:22:59,87878,89357,16720.0,10,16725.0,7,16725.0,16740.0,16685.0,16705.0,2357,-218,16705,7,16710,16
2016-11-09 10:23:00,10:23:00,10:23:59,89360,90855,16705.0,7,16710.0,16,16705.0,16705.0,16635.0,16640.0,2202,-64,16640,6,16645,12
2016-11-09 10:24:00,10:24:00,10:24:59,90856,91926,16630.0,14,16640.0,17,16640.0,16715.0,16635.0,16710.0,1366,71,16705,11,16710,1
2016-11-09 10:25:00,10:25:00,10:25:58,91927,92616,16705.0,7,16710.0,5,16710.0,16710.0,16685.0,16700.0,734,39,16700,4,16705,9
2016-11-09 10:26:00,10:26:00,10:26:59,92620,93379,16700.0,4,16705.0,8,16700.0,16760.0,16695.0,16755.0,880,71,16755,3,16760,5
2016-11-09 10:27:00,10:27:00,10:27:59,93384,94054,16750.0,15,16755.0,2,16750.0,16785.0,16745.0,16785.0,683,-65,16785,4,16790,8
2016-11-09 10:28:00,10:28:00,10:28:59,94057,95048,16785.0,4,16790.0,8,16790.0,16800.0,16755.0,16765.0,1404,431,16760,57,16765,4
2016-11-09 10:29:00,10:29:01,10:29:59,95055,95650,16760.0,56,16765.0,7,16760.0,16795.0,16745.0,16795.0,717,34,16790,8,16795,7
2016-11-09 10:30:00,10:30:00,10:30:59,95651,96553,16790.0,5,16795.0,9,16790.0,16830.0,16730.0,16755.0,1280,-75,16750,5,16755,4
2016-11-09 10:31:00,10:31:00,10:31:58,96559,97212,16750.0,4,16755.0,8,16750.0,16790.0,16745.0,16760.0,737,177,16755,18,16765,12
2016-11-09 10:32:00,10:32:00,10:32:59,97219,97730,16755.0,12,16760.0,2,16760.0,16765.0,16730.0,16750.0,488,202,16745,9,16755,11
2016-11-09 10:33:00,10:33:00,10:33:59,97733,98329,16745.0,9,16755.0,11,16745.0,16745.0,16685.0,16715.0,724,-145,16710,16,16720,53
2016-11-09 10:34:00,10:34:00,10:34:59,98334,99232,16715.0,1,16720.0,53,16715.0,16715.0,16595.0,16620.0,1392,-326,16615,23,16620,4
2016-11-09 10:35:00,10:35:00,10:35:58,99235,100488,16615.0,23,16620.0,4,16615.0,16630.0,16560.0,16595.0,1716,-91,16590,11,16600,11
2016-11-09 10:36:00,10:36:00,10:36:59,100495,101550,16590.0,6,16595.0,5,16595.0,16615.0,16570.0,16580.0,1245,-165,16580,5,16585,10
2016-11-09 10:37:00,10:37:00,10:37:58,101553,102320,16580.0,5,16585.0,10,16585.0,16610.0,16575.0,16600.0,780,99,16595,10,16605,18
2016-11-09 10:38:00,10:38:00,10:38:59,102326,103567,16595.0,11,16600.0,8,16595.0,16595.0,16500.0,16510.0,1747,-589,16505,16,16510,128
2016-11-09 10:39:00,10:39:00,10:39:59,103568,104327,16505.0,17,16510.0,139,16510.0,16560.0,16500.0,16560.0,980,149,16555,10,16560,11
2016-11-09 10:40:00,10:40:00,10:40:59,104334,104965,16555.0,13,16560.0,6,16560.0,16590.0,16545.0,16590.0,771,108,16590,3,16595,10
2016-11-09 10:41:00,10:41:00,10:41:59,104968,105994,16590.0,3,16595.0,10,16590.0,16620.0,16575.0,16600.0,1371,341,16595,16,16600,7
2016-11-09 10:42:00,10:42:00,10:42:59,106001,106878,16595.0,13,16600.0,13,16595.0,16600.0,16555.0,16580.0,1085,136,16580,6,16585,10
2016-11-09 10:43:00,10:43:00,10:43:59,106881,107601,16580.0,6,16585.0,10,16580.0,16590.0,16555.0,16565.0,1072,285,16560,14,16565,7
2016-11-09 10:44:00,10:44:00,10:44:58,107604,108166,16560.0,14,16565.0,7,16565.0,16615.0,16565.0,16615.0,734,260,16610,6,16615,9
2016-11-09 10:45:00,10:45:00,10:45:59,108171,108620,16610.0,7,16615.0,10,16615.0,16615.0,16585.0,16595.0,461,-52,16590,17,16600,11
2016-11-09 10:46:00,10:46:00,10:46:58,108625,109244,16595.0,7,16600.0,8,16600.0,16605.0,16555.0,16575.0,614,-108,16575,9,16580,14
2016-11-09 10:47:00,10:47:00,10:47:56,109249,109696,16575.0,10,16580.0,13,16575.0,16595.0,16570.0,16575.0,418,35,16575,1,16580,12
2016-11-09 10:48:00,10:48:00,10:48:59,109707,110377,16575.0,4,16580.0,11,16580.0,16600.0,16540.0,16570.0,880,-58,16570,4,16575,5
2016-11-09 10:49:00,10:49:00,10:49:59,110381,110714,16570.0,8,16575.0,5,16575.0,16590.0,16560.0,16575.0,270,84,16570,12,16580,10
2016-11-09 10:50:00,10:50:01,10:50:59,110722,111118,16575.0,5,16580.0,8,16580.0,16590.0,16560.0,16580.0,353,-24,16575,11,16580,5
2016-11-09 10:51:00,10:51:01,10:51:59,111121,111407,16575.0,11,16580.0,5,16580.0,16590.0,16565.0,16585.0,205,63,16575,22,16585,6
2016-11-09 10:52:00,10:52:01,10:52:59,111413,111793,16575.0,23,16580.0,2,16580.0,16580.0,16550.0,16580.0,315,-34,16575,17,16585,10
2016-11-09 10:53:00,10:53:00,10:53:59,111795,112568,16575.0,17,16580.0,6,16580.0,16690.0,16580.0,16685.0,983,544,16680,7,16690,7
2016-11-09 10:54:00,10:54:00,10:54:59,112573,113254,16680.0,5,16685.0,2,16680.0,16715.0,16665.0,16715.0,760,190,16710,10,16715,1
2016-11-09 10:55:00,10:55:00,10:55:59,113257,113684,16710.0,10,16715.0,1,16715.0,16745.0,16700.0,16740.0,421,102,16740,12,16745,21
2016-11-09 10:56:00,10:56:00,10:56:59,113689,114352,16740.0,13,16745.0,20,16745.0,16750.0,16720.0,16725.0,804,93,16720,15,16730,7
2016-11-09 10:57:00,10:57:00,10:57:59,114356,114955,16720.0,16,16730.0,7,16725.0,16740.0,16680.0,16720.0,777,-17,16720,9,16725,3
2016-11-09 10:58:00,10:58:00,10:58:59,114958,115406,16720.0,9,16725.0,3,16720.0,16725.0,16675.0,16685.0,474,-175,16685,20,16690,5
2016-11-09 10:59:00,10:59:00,10:59:59,115409,115812,16685.0,20,16690.0,5,16690.0,16715.0,16680.0,16700.0,435,29,16690,9,16700,3
2016-11-09 11:00:00,11:00:02,11:00:53,115820,116220,16690.0,7,16695.0,3,16690.0,16690.0,16625.0,16645.0,324,15,16640,6,16650,6
2016-11-09 11:01:00,11:01:00,11:01:57,116237,116613,16640.0,2,16650.0,12,16640.0,16660.0,16630.0,16650.0,364,65,16645,6,16655,11
2016-11-09 11:02:00,11:02:00,11:02:59,116620,117112,16645.0,4,16655.0,14,16650.0,16660.0,16580.0,16590.0,547,-3,16590,2,16595,4
2016-11-09 11:03:00,11:03:01,11:03:59,117119,117505,16590.0,5,16595.0,7,16590.0,16610.0,16580.0,16585.0,435,135,16580,9,16590,10
2016-11-09 11:04:00,11:04:00,11:04:59,117506,118006,16580.0,7,16590.0,8,16585.0,16585.0,16530.0,16550.0,738,-8,16550,4,16555,9
2016-11-09 11:05:00,11:05:00,11:05:59,118009,118396,16550.0,4,16555.0,9,16550.0,16555.0,16535.0,16555.0,348,-38,16550,11,16555,2
2016-11-09 11:06:00,11:06:00,11:06:59,118398,118649,16550.0,7,16555.0,2,16555.0,16565.0,16530.0,16540.0,171,-2,16535,7,16545,7
2016-11-09 11:07:00,11:07:00,11:07:59,118654,119135,16535.0,2,16540.0,6,16540.0,16550.0,16505.0,16520.0,579,-247,16520,13,16525,10
2016-11-09 11:08:00,11:08:00,11:08:59,119138,120084,16520.0,13,16525.0,10,16525.0,16555.0,16465.0,16530.0,1476,-416,16525,14,16535,9
2016-11-09 11:09:00,11:09:01,11:09:57,120088,120513,16530.0,1,16535.0,9,16530.0,16540.0,16515.0,16530.0,518,-155,16530,3,16535,6
2016-11-09 11:10:00,11:10:03,11:10:58,120518,120790,16530.0,7,16535.0,2,16535.0,16540.0,16525.0,16530.0,197,-39,16530,5,16535,6
2016-11-09 11:11:00,11:11:01,11:11:59,120797,121211,16530.0,6,16535.0,7,16535.0,16565.0,16530.0,16530.0,483,174,16530,4,16535,24
2016-11-09 11:12:00,11:12:01,11:12:59,121216,121742,16530.0,4,16535.0,24,16530.0,16535.0,16515.0,16520.0,705,-205,16510,23,16525,23
2016-11-09 11:13:00,11:13:00,11:13:58,121744,122268,16515.0,8,16525.0,23,16515.0,16515.0,16465.0,16475.0,595,-190,16470,9,16480,9
2016-11-09 11:14:00,11:14:00,11:14:59,122271,122904,16475.0,2,16480.0,10,16475.0,16490.0,16430.0,16435.0,758,-195,16430,6,16435,11
2016-11-09 11:15:00,11:15:00,11:15:59,122908,123197,16430.0,6,16435.0,13,16435.0,16465.0,16435.0,16465.0,262,120,16460,8,16465,1
2016-11-09 11:16:00,11:16:00,11:16:59,123201,123591,16460.0,9,16465.0,1,16465.0,16500.0,16465.0,16485.0,413,98,16480,4,16490,14
2016-11-09 11:17:00,11:17:00,11:17:59,123594,124111,16480.0,4,16490.0,14,16485.0,16540.0,16485.0,16500.0,506,210,16495,3,16505,11
2016-11-09 11:18:00,11:18:00,11:18:58,124112,124420,16500.0,3,16505.0,8,16500.0,16500.0,16480.0,16490.0,270,69,16485,10,16495,8
2016-11-09 11:19:00,11:19:00,11:19:58,124425,124693,16490.0,3,16495.0,7,16490.0,16490.0,16465.0,16470.0,192,-8,16465,2,16470,9
2016-11-09 11:20:00,11:20:01,11:20:59,124701,124973,16465.0,4,16470.0,8,16470.0,16480.0,16455.0,16460.0,204,20,16460,3,16465,12
2016-11-09 11:21:00,11:21:00,11:21:59,124976,125231,16460.0,3,16465.0,12,16465.0,16495.0,16460.0,16475.0,275,-42,16470,7,16475,9
2016-11-09 11:22:00,11:22:00,11:22:59,125236,125489,16470.0,12,16480.0,19,16470.0,16470.0,16435.0,16450.0,233,-57,16445,5,16455,6
2016-11-09 11:23:00,11:23:00,11:23:59,125492,125807,16445.0,5,16455.0,6,16455.0,16465.0,16430.0,16450.0,372,89,16445,5,16455,10
2016-11-09 11:24:00,11:24:03,11:24:59,125812,126316,16445.0,5,16455.0,10,16455.0,16455.0,16375.0,16375.0,641,-183,16375,6,16385,21
2016-11-09 11:25:00,11:25:00,11:25:59,126321,127530,16375.0,1,16380.0,5,16380.0,16380.0,16240.0,16290.0,2214,-483,16285,7,16295,4
2016-11-09 11:26:00,11:26:00,11:26:59,127531,128304,16285.0,1,16290.0,5,16290.0,16335.0,16270.0,16305.0,930,-45,16300,8,16300,2
2016-11-09 11:27:00,11:27:01,11:27:57,128306,128621,16300.0,8,16310.0,5,16300.0,16310.0,16270.0,16285.0,262,35,16285,1,16290,6
2016-11-09 11:28:00,11:28:00,11:28:59,128629,128982,16280.0,4,16285.0,1,16285.0,16285.0,16255.0,16275.0,378,-93,16265,5,16270,2
2016-11-09 11:29:00,11:29:00,11:29:59,128985,129315,16265.0,5,16270.0,2,16265.0,16290.0,16260.0,16290.0,307,-13,16290,10,16300,14
2016-11-09 11:30:00,11:30:00,11:30:59,129316,130040,16285.0,2,16290.0,4,16295.0,16335.0,16290.0,16315.0,972,-91,16310,3,16320,16
2016-11-09 11:31:00,11:31:00,11:31:55,130044,130450,16310.0,3,16315.0,8,16310.0,16315.0,16295.0,16300.0,493,25,16295,4,16305,7
2016-11-09 11:32:00,11:32:01,11:32:59,130470,131055,16290.0,18,16300.0,17,16295.0,16310.0,16245.0,16250.0,802,-386,16265,5,16270,12
2016-11-09 11:33:00,11:33:00,11:33:59,131056,131686,16250.0,4,16255.0,2,16260.0,16315.0,16260.0,16315.0,945,34,16310,36,16320,63
2016-11-09 11:34:00,11:34:00,11:34:57,131691,132188,16310.0,34,16320.0,65,16315.0,16330.0,16295.0,16305.0,668,37,16300,4,16310,17
2016-11-09 11:35:00,11:35:00,11:35:59,132196,132576,16300.0,4,16305.0,6,16300.0,16345.0,16295.0,16335.0,424,3,16345,27,16350,43
2016-11-09 11:36:00,11:36:00,11:36:59,132577,133380,16335.0,4,16345.0,12,16345.0,16415.0,16345.0,16405.0,1009,154,16405,3,16410,3
2016-11-09 11:37:00,11:37:00,11:37:59,133381,134077,16410.0,3,16415.0,13,16410.0,16425.0,16350.0,16360.0,952,304,16355,8,16365,19
2016-11-09 11:38:00,11:38:01,11:38:59,134083,134696,16355.0,7,16365.0,27,16355.0,16355.0,16305.0,16340.0,775,-40,16340,3,16345,5
2016-11-09 11:39:00,11:39:00,11:39:59,134699,135322,16340.0,3,16345.0,5,16345.0,16365.0,16315.0,16340.0,720,-53,16335,7,16345,4
2016-11-09 11:40:00,11:40:00,11:40:59,135326,135801,16335.0,7,16345.0,5,16340.0,16360.0,16320.0,16360.0,447,15,16360,1,16365,7
2016-11-09 11:41:00,11:41:00,11:41:59,135804,136246,16360.0,1,16365.0,7,16365.0,16365.0,16340.0,16350.0,470,33,16345,4,16350,2
2016-11-09 11:42:00,11:42:00,11:42:59,136249,136632,16345.0,4,16350.0,2,16345.0,16355.0,16325.0,16325.0,433,-147,16325,5,16330,11
2016-11-09 11:43:00,11:43:00,11:43:59,136633,136950,16320.0,10,16330.0,12,16325.0,16355.0,16315.0,16355.0,408,99,16350,9,16355,4
2016-11-09 11:44:00,11:44:00,11:44:59,136951,137217,16350.0,10,16360.0,15,16355.0,16370.0,16355.0,16355.0,330,-75,16350,4,16355,17
2016-11-09 11:45:00,11:45:00,11:45:59,137221,137492,16350.0,5,16355.0,17,16350.0,16365.0,16345.0,16365.0,262,115,16360,21,16365,3
2016-11-09 11:46:00,11:46:00,11:46:59,137493,138043,16365.0,5,16370.0,17,16365.0,16410.0,16365.0,16405.0,626,117,16400,10,16405,4
2016-11-09 11:47:00,11:47:00,11:47:58,138048,138628,16400.0,8,16405.0,10,16400.0,16435.0,16400.0,16410.0,652,91,16405,9,16410,2
2016-11-09 11:48:00,11:48:01,11:48:55,138638,139193,16405.0,11,16415.0,19,16410.0,16445.0,16405.0,16435.0,724,27,16430,17,16435,16
2016-11-09 11:49:00,11:49:01,11:49:58,139201,139616,16430.0,17,16435.0,17,16435.0,16435.0,16405.0,16405.0,420,-176,16400,10,16405,10
2016-11-09 11:50:00,11:50:00,11:50:55,139622,140075,16400.0,9,16405.0,34,16400.0,16405.0,16390.0,16395.0,570,20,16395,14,16400,38
2016-11-09 11:51:00,11:51:01,11:51:58,140083,140936,16395.0,8,16400.0,42,16395.0,16420.0,16365.0,16410.0,1063,50,16410,6,16415,8
2016-11-09 11:52:00,11:52:00,11:52:56,140943,141407,16410.0,8,16415.0,7,16415.0,16415.0,16380.0,16385.0,489,-108,16385,5,16390,44
2016-11-09 11:53:00,11:53:00,11:53:59,141415,142018,16385.0,3,16390.0,42,16390.0,16405.0,16380.0,16385.0,719,27,16385,2,16390,28
2016-11-09 11:54:00,11:54:01,11:54:59,142024,142464,16385.0,3,16390.0,28,16385.0,16400.0,16360.0,16385.0,538,-18,16380,16,16385,17
2016-11-09 11:55:00,11:55:00,11:55:57,142469,142796,16380.0,14,16385.0,18,16380.0,16400.0,16370.0,16390.0,332,128,16390,4,16395,9
2016-11-09 11:56:00,11:56:03,11:56:58,142804,143168,16390.0,5,16395.0,12,16390.0,16395.0,16380.0,16385.0,392,-76,16385,6,16390,8
2016-11-09 11:57:00,11:57:00,11:57:59,143172,143748,16385.0,9,16390.0,8,16390.0,16395.0,16345.0,16350.0,708,-85,16345,7,16355,15
2016-11-09 11:58:00,11:58:00,11:58:59,143753,144173,16350.0,10,16355.0,17,16350.0,16375.0,16350.0,16360.0,442,-64,16350,20,16360,15
2016-11-09 11:59:00,11:59:00,11:59:57,144176,144471,16350.0,20,16360.0,15,16355.0,16360.0,16335.0,16345.0,238,25,16340,19,16345,4
2016-11-09 12:00:00,12:00:01,12:00:59,144480,144831,16340.0,18,16345.0,5,16345.0,16345.0,16300.0,16305.0,309,-188,16305,3,16320,8
2016-11-09 12:01:00,12:01:02,12:01:59,144836,145557,16305.0,8,16310.0,15,16310.0,16415.0,16310.0,16415.0,874,296,16410,14,16425,9
2016-11-09 12:02:00,12:02:00,12:02:59,145558,146332,16415.0,2,16420.0,16,16415.0,16430.0,16400.0,16410.0,870,196,16405,9,16410,5
2016-11-09 12:03:00,12:03:00,12:03:59,146334,147003,16405.0,23,16410.0,5,16410.0,16470.0,16405.0,16460.0,790,337,16450,14,16460,25
2016-11-09 12:04:00,12:04:00,12:04:59,147007,147512,16455.0,1,16460.0,25,16455.0,16460.0,16435.0,16455.0,537,-60,16450,19,16460,11
2016-11-09 12:05:00,12:05:00,12:05:58,147515,148107,16450.0,19,16460.0,11,16455.0,16470.0,16445.0,16450.0,563,35,16445,12,16450,4
2016-11-09 12:06:00,12:06:02,12:06:59,148118,148732,16445.0,14,16450.0,4,16445.0,16460.0,16430.0,16450.0,640,-7,16450,2,16455,9
2016-11-09 12:07:00,12:07:01,12:07:59,148737,149232,16450.0,7,16455.0,7,16455.0,16455.0,16430.0,16430.0,647,-188,16425,24,16435,19
2016-11-09 12:08:00,12:08:00,12:08:58,149233,149661,16430.0,18,16435.0,9,16430.0,16430.0,16400.0,16400.0,609,-232,16395,5,16400,7
2016-11-09 12:09:00,12:09:06,12:09:57,149677,149952,16395.0,10,16400.0,7,16400.0,16425.0,16400.0,16410.0,214,-10,16410,4,16415,17
2016-11-09 12:10:00,12:10:00,12:10:59,149963,150207,16410.0,8,16415.0,12,16415.0,16425.0,16410.0,16425.0,165,69,16425,6,16430,65
2016-11-09 12:11:00,12:11:04,12:11:59,150217,150622,16425.0,8,16430.0,67,16425.0,16475.0,16425.0,16460.0,417,160,16455,16,16465,12
2016-11-09 12:12:00,12:12:01,12:12:59,150629,151058,16460.0,3,16465.0,12,16460.0,16475.0,16445.0,16470.0,455,59,16470,4,16475,12
2016-11-09 12:13:00,12:13:02,12:13:57,151067,151375,16470.0,2,16475.0,13,16470.0,16475.0,16455.0,16475.0,210,34,16470,10,16480,21
2016-11-09 12:14:00,12:14:02,12:14:58,151390,151759,16470.0,10,16475.0,11,16470.0,16500.0,16465.0,16495.0,338,59,16495,2,16500,135
2016-11-09 12:15:00,12:15:04,12:15:58,151773,152292,16495.0,22,16500.0,134,16495.0,16500.0,16465.0,16470.0,697,-56,16470,9,16475,11
2016-11-09 12:16:00,12:16:00,12:16:58,152299,152705,16470.0,10,16475.0,15,16475.0,16475.0,16460.0,16470.0,407,-114,16470,2,16475,90
2016-11-09 12:17:00,12:17:00,12:17:59,152713,153241,16470.0,1,16475.0,90,16470.0,16500.0,16470.0,16490.0,690,126,16490,1,16495,15
2016-11-09 12:18:00,12:18:01,12:18:58,153247,153719,16485.0,7,16490.0,14,16490.0,16495.0,16460.0,16480.0,457,-43,16475,12,16480,5
2016-11-09 12:19:00,12:19:03,12:19:59,153730,154310,16475.0,9,16480.0,11,16475.0,16475.0,16440.0,16465.0,574,-100,16460,10,16465,5
2016-11-09 12:20:00,12:20:01,12:20:59,154318,154779,16465.0,5,16470.0,10,16465.0,16470.0,16435.0,16450.0,414,-55,16445,25,16450,3
2016-11-09 12:21:00,12:21:00,12:21:50,154782,155095,16445.0,25,16450.0,3,16450.0,16460.0,16440.0,16455.0,315,92,16450,12,16455,2
2016-11-09 12:22:00,12:22:01,12:22:59,155113,155476,16450.0,9,16455.0,11,16450.0,16480.0,16445.0,16480.0,332,51,16480,3,16485,12
2016-11-09 12:23:00,12:23:00,12:23:59,155482,155885,16480.0,1,16485.0,10,16480.0,16495.0,16480.0,16485.0,409,96,16480,30,16485,3
2016-11-09 12:24:00,12:24:00,12:24:58,155888,156206,16480.0,30,16485.0,3,16485.0,16490.0,16460.0,16465.0,266,-17,16465,5,16465,2
2016-11-09 12:25:00,12:25:00,12:25:59,156209,156486,16460.0,13,16465.0,5,16465.0,16480.0,16460.0,16480.0,202,13,16480,1,16485,10
2016-11-09 12:26:00,12:26:00,12:26:59,156490,156791,16480.0,1,16485.0,12,16480.0,16480.0,16460.0,16460.0,217,-70,16455,29,16460,2
2016-11-09 12:27:00,12:27:00,12:27:56,156796,157045,16460.0,4,16465.0,19,16460.0,16485.0,16460.0,16465.0,223,-21,16465,7,16470,11
2016-11-09 12:28:00,12:28:00,12:28:59,157055,157433,16465.0,11,16470.0,9,16470.0,16495.0,16470.0,16490.0,345,45,16490,3,16495,13
2016-11-09 12:29:00,12:29:01,12:29:58,157437,157749,16490.0,3,16495.0,11,16495.0,16525.0,16490.0,16525.0,394,267,16520,39,16525,67
2016-11-09 12:30:00,12:30:00,12:30:59,157757,158478,16520.0,39,16525.0,87,16520.0,16530.0,16480.0,16480.0,871,-117,16480,7,16485,11
2016-11-09 12:31:00,12:31:00,12:31:58,158481,159235,16480.0,7,16485.0,11,16480.0,16480.0,16445.0,16445.0,878,81,16440,16,16445,7
2016-11-09 12:32:00,12:32:00,12:32:59,159240,159866,16440.0,16,16445.0,7,16440.0,16440.0,16380.0,16380.0,600,-150,16375,14,16380,5
2016-11-09 12:33:00,12:33:01,12:33:59,159872,160486,16375.0,8,16380.0,6,16375.0,16385.0,16345.0,16355.0,722,-37,16355,3,16360,6
2016-11-09 12:34:00,12:34:00,12:34:59,160489,160976,16355.0,3,16360.0,6,16355.0,16370.0,16340.0,16355.0,541,9,16350,7,16355,7
2016-11-09 12:35:00,12:35:01,12:35:59,160979,161480,16350.0,7,16355.0,7,16355.0,16355.0,16320.0,16335.0,545,-43,16330,11,16335,2
2016-11-09 12:36:00,12:36:02,12:36:58,161491,161937,16330.0,7,16335.0,19,16330.0,16355.0,16315.0,16320.0,483,-44,16315,9,16320,6
2016-11-09 12:37:00,12:37:03,12:37:57,161952,162366,16315.0,6,16320.0,8,16315.0,16315.0,16275.0,16275.0,496,-214,16275,7,16280,8
2016-11-09 12:38:00,12:38:01,12:38:59,162376,162813,16275.0,7,16280.0,10,16275.0,16280.0,16260.0,16260.0,525,-135,16255,15,16265,49
2016-11-09 12:39:00,12:39:01,12:39:58,162819,163209,16255.0,16,16265.0,49,16260.0,16305.0,16255.0,16305.0,481,62,16300,9,16305,5
2016-11-09 12:40:00,12:40:01,12:40:58,163215,163597,16300.0,10,16305.0,7,16305.0,16315.0,16275.0,16275.0,374,84,16270,17,16280,19
2016-11-09 12:41:00,12:41:00,12:41:57,163599,164018,16270.0,17,16280.0,17,16270.0,16295.0,16265.0,16270.0,452,4,16265,15,16270,2
2016-11-09 12:42:00,12:42:00,12:42:59,164030,164617,16265.0,5,16270.0,23,16270.0,16275.0,16240.0,16260.0,779,-67,16255,13,16265,10
2016-11-09 12:43:00,12:43:00,12:43:56,164618,165069,16240.0,12,16245.0,2,16260.0,16295.0,16245.0,16280.0,483,95,16275,7,16280,25
2016-11-09 12:44:00,12:44:00,12:44:59,165080,165468,16275.0,11,16280.0,32,16275.0,16275.0,16230.0,16230.0,441,-112,16230,9,16235,22
2016-11-09 12:45:00,12:45:00,12:45:59,165471,166039,16230.0,9,16235.0,22,16235.0,16255.0,16215.0,16250.0,798,110,16245,15,16255,27
2016-11-09 12:46:00,12:46:01,12:46:59,166045,166397,16245.0,10,16250.0,9,16250.0,16250.0,16225.0,16230.0,348,29,16225,13,16235,33
2016-11-09 12:47:00,12:47:02,12:47:57,166404,166671,16225.0,10,16230.0,2,16230.0,16255.0,16230.0,16255.0,250,76,16250,25,16255,5
2016-11-09 12:48:00,12:48:04,12:48:50,166686,167106,16250.0,23,16255.0,14,16250.0,16255.0,16240.0,16240.0,870,-331,16240,1,16245,22
2016-11-09 12:49:00,12:49:02,12:49:57,167123,167405,16240.0,5,16245.0,23,16245.0,16260.0,16245.0,16250.0,293,-2,16250,12,16255,9
2016-11-09 12:50:00,12:50:01,12:50:54,167409,167737,16250.0,15,16255.0,9,16255.0,16255.0,16245.0,16255.0,414,-57,16250,19,16260,11
2016-11-09 12:51:00,12:51:02,12:51:53,167747,167922,16250.0,20,16255.0,7,16250.0,16255.0,16250.0,16255.0,155,-93,16250,26,16255,2
2016-11-09 12:52:00,12:52:04,12:52:55,167931,168293,16250.0,25,16255.0,7,16255.0,16260.0,16245.0,16250.0,486,-324,16245,17,16250,10
2016-11-09 12:53:00,12:53:01,12:53:58,168302,168696,16245.0,12,16250.0,26,16250.0,16250.0,16230.0,16235.0,512,127,16235,10,16240,95
2016-11-09 12:54:00,12:54:01,12:54:57,168703,169092,16235.0,16,16240.0,91,16240.0,16240.0,16215.0,16215.0,401,-55,16215,2,16220,26
2016-11-09 12:55:00,12:55:01,12:55:58,169103,169529,16215.0,1,16220.0,27,16215.0,16220.0,16205.0,16215.0,621,46,16215,12,16220,16
2016-11-09 12:56:00,12:56:00,12:56:59,169534,170172,16215.0,9,16220.0,21,16215.0,16260.0,16215.0,16250.0,969,159,16250,7,16255,13
2016-11-09 12:57:00,12:57:03,12:57:59,170180,170509,16250.0,4,16255.0,23,16250.0,16255.0,16245.0,16245.0,428,-188,16240,19,16250,33
2016-11-09 12:58:00,12:58:04,12:58:56,170520,170716,16245.0,6,16250.0,38,16245.0,16245.0,16235.0,16235.0,235,-5,16235,11,16240,15
2016-11-09 12:59:00,12:59:00,12:59:56,170727,171089,16235.0,4,16240.0,21,16235.0,16235.0,16195.0,16200.0,379,-142,16200,10,16205,16
2016-11-09 13:00:00,13:00:01,13:00:59,171098,171542,16200.0,6,16205.0,22,16200.0,16200.0,16180.0,16180.0,503,5,16180,11,16185,54
2016-11-09 13:01:00,13:01:03,13:01:59,171546,171976,16180.0,7,16185.0,54,16180.0,16190.0,16170.0,16185.0,589,-18,16180,15,16190,18
2016-11-09 13:02:00,13:02:00,13:02:52,171981,172332,16185.0,4,16190.0,17,16185.0,16190.0,16170.0,16170.0,377,-19,16165,20,16170,12
2016-11-09 13:03:00,13:03:00,13:03:59,172345,172764,16165.0,25,16170.0,11,16165.0,16170.0,16135.0,16160.0,686,-268,16160,13,16165,25
2016-11-09 13:04:00,13:04:07,13:04:55,172777,173088,16160.0,17,16165.0,28,16165.0,16165.0,16145.0,16150.0,417,-160,16145,21,16155,19
2016-11-09 13:05:00,13:05:00,13:05:57,173101,173409,16150.0,9,16155.0,25,16150.0,16155.0,16150.0,16150.0,362,-109,16150,10,16155,21
2016-11-09 13:06:00,13:06:02,13:06:58,173414,173725,16150.0,13,16155.0,21,16155.0,16155.0,16130.0,16135.0,293,-92,16130,17,16140,16
2016-11-09 13:07:00,13:07:02,13:07:58,173732,174071,16130.0,21,16140.0,22,16135.0,16140.0,16110.0,16115.0,368,-97,16115,4,16120,20
2016-11-09 13:08:00,13:08:00,13:08:59,174074,174411,16110.0,21,16115.0,2,16115.0,16115.0,16100.0,16105.0,547,-103,16100,229,16105,16
2016-11-09 13:09:00,13:09:00,13:09:58,174416,174870,16100.0,231,16105.0,38,16105.0,16115.0,16095.0,16115.0,1000,-307,16110,23,16120,23
2016-11-09 13:10:00,13:10:00,13:10:58,174875,175283,16110.0,25,16120.0,26,16110.0,16145.0,16110.0,16140.0,502,248,16135,10,16145,26
2016-11-09 13:11:00,13:11:00,13:11:59,175289,175642,16135.0,10,16140.0,3,16140.0,16150.0,16135.0,16135.0,422,34,16135,3,16140,15
2016-11-09 13:12:00,13:12:00,13:12:59,175645,176034,16135.0,3,16140.0,15,16135.0,16140.0,16125.0,16140.0,456,-84,16130,10,16140,16
2016-11-09 13:13:00,13:13:00,13:13:59,176039,176610,16130.0,10,16135.0,3,16135.0,16170.0,16135.0,16170.0,646,432,16165,14,16175,117
2016-11-09 13:14:00,13:14:01,13:14:58,176617,177129,16165.0,19,16175.0,113,16175.0,16180.0,16165.0,16175.0,723,116,16170,25,16175,3
2016-11-09 13:15:00,13:15:01,13:15:55,177141,177481,16170.0,20,16175.0,19,16175.0,16210.0,16165.0,16205.0,307,135,16200,13,16205,11
2016-11-09 13:16:00,13:16:00,13:16:59,177491,177877,16200.0,30,16205.0,18,16205.0,16230.0,16205.0,16220.0,448,131,16215,20,16220,4
2016-11-09 13:17:00,13:17:00,13:17:59,177882,178389,16215.0,17,16220.0,11,16220.0,16235.0,16200.0,16205.0,543,50,16205,19,16210,27
2016-11-09 13:18:00,13:18:00,13:18:57,178392,178694,16205.0,19,16210.0,27,16210.0,16210.0,16190.0,16195.0,240,11,16190,12,16200,29
2016-11-09 13:19:00,13:19:02,13:19:59,178703,178999,16195.0,21,16200.0,25,16195.0,16200.0,16190.0,16195.0,272,-61,16195,2,16200,23
2016-11-09 13:20:00,13:20:01,13:20:56,179003,179323,16195.0,3,16200.0,23,16195.0,16210.0,16195.0,16205.0,320,3,16205,1,16210,24
2016-11-09 13:21:00,13:21:00,13:21:59,179335,179697,16205.0,10,16210.0,35,16205.0,16235.0,16205.0,16225.0,439,92,16225,13,16230,2
2016-11-09 13:22:00,13:22:00,13:22:58,179698,180027,16220.0,17,16225.0,7,16230.0,16240.0,16230.0,16240.0,264,36,16235,16,16240,8
2016-11-09 13:23:00,13:23:01,13:23:59,180036,180417,16235.0,13,16240.0,18,16235.0,16265.0,16235.0,16255.0,564,90,16250,117,16255,10
2016-11-09 13:24:00,13:24:00,13:24:54,180421,180819,16250.0,117,16255.0,6,16255.0,16265.0,16240.0,16265.0,589,-11,16260,22,16265,7
2016-11-09 13:25:00,13:25:00,13:25:59,180834,181449,16260.0,17,16265.0,16,16260.0,16270.0,16240.0,16255.0,708,68,16255,2,16260,25
2016-11-09 13:26:00,13:26:00,13:26:59,181452,182368,16255.0,2,16260.0,25,16255.0,16350.0,16250.0,16340.0,1602,773,16335,19,16340,10
2016-11-09 13:27:00,13:27:00,13:27:58,182371,183030,16335.0,19,16340.0,10,16340.0,16350.0,16290.0,16300.0,835,161,16300,5,16305,18
2016-11-09 13:28:00,13:28:01,13:28:59,183039,183416,16300.0,7,16305.0,18,16305.0,16330.0,16300.0,16325.0,360,59,16320,41,16330,13
2016-11-09 13:29:00,13:29:00,13:29:59,183420,184005,16325.0,10,16330.0,13,16330.0,16335.0,16305.0,16310.0,642,-39,16305,16,16315,12
2016-11-09 13:30:00,13:30:00,13:30:59,184006,184540,16305.0,18,16310.0,3,16310.0,16335.0,16305.0,16335.0,742,-28,16330,23,16335,186
2016-11-09 13:31:00,13:31:00,13:31:58,184541,185109,16330.0,22,16335.0,240,16330.0,16335.0,16280.0,16280.0,811,119,16275,21,16285,53
2016-11-09 13:32:00,13:32:00,13:32:59,185113,185680,16275.0,22,16285.0,53,16280.0,16285.0,16250.0,16270.0,736,138,16265,22,16270,2
2016-11-09 13:33:00,13:33:00,13:33:55,185685,186057,16265.0,20,16270.0,6,16270.0,16270.0,16250.0,16260.0,394,101,16255,35,16265,26
2016-11-09 13:34:00,13:34:03,13:34:59,186072,186389,16260.0,48,16265.0,35,16265.0,16280.0,16250.0,16270.0,431,31,16270,10,16275,26
2016-11-09 13:35:00,13:35:00,13:35:59,186394,186993,16270.0,7,16275.0,27,16270.0,16315.0,16270.0,16285.0,722,75,16285,7,16290,12
2016-11-09 13:36:00,13:36:00,13:36:54,186997,187447,16285.0,6,16290.0,12,16290.0,16290.0,16270.0,16280.0,696,-51,16275,25,16280,9
2016-11-09 13:37:00,13:37:06,13:37:59,187465,187838,16275.0,22,16280.0,22,16275.0,16275.0,16255.0,16260.0,375,-33,16260,8,16265,33
2016-11-09 13:38:00,13:38:06,13:38:58,187850,188175,16260.0,9,16265.0,36,16260.0,16270.0,16235.0,16255.0,325,-129,16255,5,16255,32
2016-11-09 13:39:00,13:39:00,13:39:59,188178,188748,16255.0,2,16260.0,73,16255.0,16255.0,16225.0,16240.0,783,22,16235,13,16240,11
2016-11-09 13:40:00,13:40:00,13:40:59,188753,189184,16235.0,6,16240.0,20,16235.0,16235.0,16215.0,16215.0,762,-138,16215,7,16220,34
2016-11-09 13:41:00,13:41:00,13:41:58,189186,189555,16215.0,7,16220.0,33,16215.0,16240.0,16215.0,16230.0,561,-94,16225,77,16230,35
2016-11-09 13:42:00,13:42:00,13:42:58,189561,189968,16225.0,79,16230.0,31,16225.0,16245.0,16220.0,16235.0,622,-20,16235,11,16240,26
2016-11-09 13:43:00,13:43:01,13:43:57,189978,190376,16235.0,14,16240.0,16,16235.0,16255.0,16230.0,16240.0,550,-90,16240,16,16245,22
2016-11-09 13:44:00,13:44:00,13:44:59,190387,191398,16240.0,15,16245.0,21,16245.0,16320.0,16235.0,16290.0,1592,361,16285,16,16290,5
2016-11-09 13:45:00,13:45:00,13:45:59,191404,191884,16285.0,16,16290.0,8,16290.0,16290.0,16250.0,16265.0,538,-54,16260,17,16265,17
2016-11-09 13:46:00,13:46:00,13:46:59,191887,192243,16260.0,17,16265.0,17,16265.0,16275.0,16250.0,16260.0,495,147,16255,18,16265,26
2016-11-09 13:47:00,13:47:00,13:47:59,192246,192582,16255.0,18,16265.0,26,16260.0,16265.0,16255.0,16260.0,384,-52,16260,9,16265,12
2016-11-09 13:48:00,13:48:02,13:48:55,192591,192955,16260.0,15,16265.0,14,16265.0,16275.0,16265.0,16275.0,413,197,16270,19,16275,6
2016-11-09 13:49:00,13:49:00,13:49:59,192967,193338,16270.0,27,16275.0,21,16275.0,16290.0,16270.0,16285.0,371,37,16285,15,16290,72
2016-11-09 13:50:00,13:50:01,13:50:58,193342,193764,16285.0,16,16290.0,70,16285.0,16285.0,16260.0,16260.0,471,-198,16260,10,16265,67
2016-11-09 13:51:00,13:51:02,13:51:59,193773,194137,16260.0,14,16265.0,9,16260.0,16275.0,16250.0,16270.0,406,54,16265,20,16270,6
2016-11-09 13:52:00,13:52:00,13:52:58,194138,194759,16265.0,19,16270.0,13,16270.0,16275.0,16255.0,16270.0,770,-89,16270,21,16275,21
2016-11-09 13:53:00,13:53:00,13:53:59,194766,195148,16270.0,26,16275.0,21,16270.0,16280.0,16260.0,16280.0,528,-228,16280,1,16285,31
2016-11-09 13:54:00,13:54:00,13:54:56,195149,195592,16275.0,33,16280.0,11,16280.0,16310.0,16275.0,16300.0,594,209,16295,27,16305,21
2016-11-09 13:55:00,13:55:00,13:55:55,195605,196069,16300.0,31,16305.0,59,16305.0,16305.0,16275.0,16290.0,771,67,16285,11,16290,23
2016-11-09 13:56:00,13:56:01,13:56:59,196084,196408,16285.0,43,16290.0,35,16285.0,16290.0,16270.0,16270.0,346,-179,16270,8,16275,76
2016-11-09 13:57:00,13:57:06,13:57:59,196418,196748,16270.0,25,16275.0,76,16270.0,16275.0,16255.0,16255.0,591,-406,16255,34,16260,242
2016-11-09 13:58:00,13:58:00,13:58:59,196751,197403,16255.0,33,16260.0,248,16260.0,16270.0,16250.0,16260.0,1492,365,16255,21,16260,7
2016-11-09 13:59:00,13:59:00,13:59:59,197406,198214,16255.0,21,16260.0,7,16260.0,16270.0,16250.0,16265.0,1719,-407,16265,10,16270,43
2016-11-09 14:00:00,14:00:00,14:00:59,198217,199429,16265.0,10,16270.0,43,16265.0,16275.0,16215.0,16215.0,2566,-367,16210,19,16215,11
2016-11-09 14:01:00,14:01:02,14:01:59,199437,200298,16210.0,6,16215.0,25,16210.0,16225.0,16190.0,16215.0,1571,-33,16210,41,16215,2
2016-11-09 14:02:00,14:02:00,14:02:59,200301,200911,16210.0,41,16215.0,2,16215.0,16230.0,16200.0,16220.0,977,164,16215,22,16220,31
2016-11-09 14:03:00,14:03:00,14:03:58,200912,201415,16215.0,20,16220.0,20,16220.0,16230.0,16200.0,16230.0,750,230,16225,32,16230,5
2016-11-09 14:04:00,14:04:00,14:04:55,201419,201861,16225.0,32,16230.0,10,16230.0,16235.0,16220.0,16235.0,647,234,16230,28,16235,14
2016-11-09 14:05:00,14:05:00,14:05:59,201872,202270,16230.0,23,16235.0,28,16230.0,16245.0,16230.0,16245.0,660,88,16240,36,16245,19
2016-11-09 14:06:00,14:06:00,14:06:59,202275,202832,16240.0,36,16245.0,19,16245.0,16260.0,16240.0,16250.0,836,-12,16250,6,16255,109
2016-11-09 14:07:00,14:07:00,14:07:58,202833,203371,16245.0,32,16250.0,1,16250.0,16255.0,16210.0,16230.0,707,-151,16225,16,16230,17
2016-11-09 14:08:00,14:08:00,14:08:57,203378,204181,16225.0,9,16230.0,18,16225.0,16250.0,16220.0,16245.0,1561,258,16240,48,16250,83
