,ST,ET,sidx,eidx,bB,bBS,bA,bAS,O,H,L,C,V,OF,eB,eBS,eA,eAS
2016-11-24 08:00:00,08:00:00,08:00:58,3063,3687,18360.0,56,18365.0,13,18360.0,18365.0,18330.0,18335.0,856,-283,18335,7,18340,76
2016-11-24 08:01:00,08:01:01,08:01:59,3694,4177,18335.0,21,18340.0,81,18335.0,18345.0,18330.0,18335.0,863,-275,18335,81,18340,43
2016-11-24 08:02:00,08:02:00,08:02:59,4178,4451,18335.0,88,18340.0,70,18335.0,18350.0,18335.0,18350.0,377,145,18345,33,18350,42
2016-11-24 08:03:00,08:03:04,08:03:56,4462,4675,18345.0,46,18350.0,76,18350.0,18350.0,18340.0,18345.0,213,68,18345,72,18350,9
2016-11-24 08:04:00,08:04:00,08:04:58,4686,4979,18345.0,73,18350.0,10,18345.0,18350.0,18345.0,18350.0,375,-7,18345,54,18350,48
2016-11-24 08:05:00,08:05:02,08:05:51,4991,5153,18345.0,59,18350.0,26,18345.0,18355.0,18345.0,18350.0,190,70,18350,29,18355,50
2016-11-24 08:06:00,08:06:00,08:06:59,5167,5321,18350.0,43,18355.0,60,18355.0,18355.0,18345.0,18350.0,80,-30,18345,59,18350,28
2016-11-24 08:07:00,08:07:00,08:07:53,5323,5519,18345.0,61,18350.0,28,18345.0,18350.0,18340.0,18350.0,182,-82,18345,55,18350,47
2016-11-24 08:08:00,08:08:00,08:08:55,5531,5707,18345.0,58,18350.0,47,18350.0,18355.0,18345.0,18355.0,159,33,18350,107,18355,24
2016-11-24 08:09:00,08:09:01,08:09:59,5717,5925,18350.0,112,18355.0,12,18355.0,18365.0,18355.0,18360.0,238,62,18360,16,18365,68
2016-11-24 08:10:00,08:10:04,08:10:59,5931,6011,18360.0,44,18365.0,68,18360.0,18365.0,18360.0,18365.0,29,-1,18360,64,18365,53
2016-11-24 08:11:00,08:11:00,08:11:59,6014,6218,18360.0,63,18365.0,51,18365.0,18365.0,18355.0,18355.0,202,-110,18355,39,18360,52
2016-11-24 08:12:00,08:12:04,08:12:58,6223,6450,18355.0,43,18360.0,49,18360.0,18370.0,18360.0,18370.0,328,262,18365,51,18370,59
2016-11-24 08:13:00,08:13:04,08:13:59,6462,6631,18365.0,61,18370.0,60,18370.0,18375.0,18360.0,18375.0,208,82,18370,21,18375,64
2016-11-24 08:14:00,08:14:00,08:14:53,6634,6814,18370.0,21,18375.0,64,18370.0,18370.0,18360.0,18360.0,215,9,18360,56,18365,31
2016-11-24 08:15:00,08:15:00,08:15:56,6819,6950,18360.0,63,18365.0,33,18360.0,18365.0,18360.0,18360.0,66,44,18360,40,18365,43
2016-11-24 08:16:00,08:16:01,08:16:57,6960,7137,18360.0,52,18365.0,44,18365.0,18365.0,18350.0,18350.0,188,-100,18350,77,18355,54
2016-11-24 08:17:00,08:17:00,08:17:59,7142,7271,18350.0,72,18355.0,52,18350.0,18355.0,18350.0,18355.0,103,55,18350,61,18355,46
2016-11-24 08:18:00,08:18:00,08:18:57,7275,7602,18350.0,60,18355.0,46,18355.0,18355.0,18345.0,18345.0,435,-249,18340,62,18345,40
2016-11-24 08:19:00,08:19:01,08:19:59,7609,7719,18340.0,68,18345.0,52,18340.0,18350.0,18340.0,18350.0,87,51,18345,37,18350,88
2016-11-24 08:20:00,08:20:00,08:20:58,7722,8179,18345.0,37,18350.0,88,18345.0,18345.0,18320.0,18320.0,637,-481,18320,61,18325,63
2016-11-24 08:21:00,08:21:00,08:21:55,8186,8396,18320.0,63,18325.0,57,18325.0,18325.0,18315.0,18320.0,287,1,18320,67,18325,23
2016-11-24 08:22:00,08:22:01,08:22:54,8407,8614,18320.0,68,18325.0,33,18325.0,18340.0,18320.0,18340.0,280,132,18335,57,18340,5
2016-11-24 08:23:00,08:23:00,08:23:59,8626,8799,18335.0,63,18340.0,28,18340.0,18345.0,18335.0,18335.0,144,-36,18335,97,18340,15
2016-11-24 08:24:00,08:24:08,08:24:55,8813,9054,18335.0,100,18340.0,20,18335.0,18345.0,18335.0,18335.0,334,-172,18330,65,18335,34
2016-11-24 08:25:00,08:25:05,08:25:53,9063,9236,18330.0,71,18335.0,41,18335.0,18335.0,18325.0,18335.0,235,-65,18335,25,18340,51
2016-11-24 08:26:00,08:26:03,08:26:53,9248,9374,18335.0,37,18340.0,55,18335.0,18345.0,18335.0,18335.0,133,-11,18335,47,18340,59
2016-11-24 08:27:00,08:27:02,08:27:58,9381,9441,18335.0,47,18340.0,60,18340.0,18340.0,18335.0,18335.0,23,-11,18335,48,18340,65
2016-11-24 08:28:00,08:28:02,08:28:56,9447,9686,18335.0,49,18340.0,74,18335.0,18335.0,18320.0,18320.0,361,-239,18320,41,18325,78
2016-11-24 08:29:00,08:29:03,08:29:58,9695,9812,18320.0,37,18325.0,83,18325.0,18330.0,18320.0,18320.0,179,11,18320,41,18325,60
2016-11-24 08:30:00,08:30:02,08:30:54,9820,9939,18320.0,45,18325.0,64,18325.0,18325.0,18325.0,18325.0,137,77,18325,12,18330,57
2016-11-24 08:31:00,08:31:00,08:31:57,9947,10048,18325.0,33,18330.0,57,18325.0,18330.0,18320.0,18325.0,83,1,18320,57,18325,26
2016-11-24 08:32:00,08:32:03,08:32:51,10054,10125,18320.0,57,18325.0,26,18325.0,18325.0,18320.0,18325.0,36,22,18320,60,18325,36
2016-11-24 08:33:00,08:33:04,08:33:55,10131,10543,18320.0,64,18325.0,38,18320.0,18340.0,18315.0,18335.0,635,307,18335,22,18340,66
2016-11-24 08:34:00,08:34:01,08:34:52,10552,10631,18335.0,17,18340.0,66,18340.0,18340.0,18330.0,18335.0,58,-24,18330,54,18335,60
2016-11-24 08:35:00,08:35:02,08:35:59,10636,10736,18330.0,56,18335.0,60,18335.0,18340.0,18330.0,18335.0,88,38,18330,61,18335,15
2016-11-24 08:36:00,08:36:20,08:36:56,10754,10814,18330.0,61,18335.0,35,18335.0,18340.0,18330.0,18340.0,64,32,18335,28,18340,56
2016-11-24 08:37:00,08:37:13,08:37:59,10825,10905,18335.0,28,18340.0,58,18335.0,18340.0,18330.0,18330.0,72,-38,18330,61,18335,34
2016-11-24 08:38:00,08:38:00,08:38:52,10910,10971,18330.0,59,18335.0,32,18330.0,18340.0,18330.0,18335.0,45,29,18335,20,18340,75
2016-11-24 08:39:00,08:39:08,08:39:58,10981,11084,18335.0,25,18340.0,80,18340.0,18340.0,18330.0,18335.0,64,-6,18330,57,18335,11
2016-11-24 08:40:00,08:40:06,08:40:56,11095,11211,18330.0,53,18335.0,37,18330.0,18345.0,18330.0,18335.0,140,28,18335,28,18340,55
2016-11-24 08:41:00,08:41:20,08:41:54,11222,11288,18335.0,26,18340.0,56,18335.0,18340.0,18330.0,18330.0,35,-25,18330,45,18335,27
2016-11-24 08:42:00,08:42:10,08:42:56,11301,11469,18330.0,45,18335.0,49,18335.0,18340.0,18330.0,18340.0,200,4,18335,25,18340,52
2016-11-24 08:43:00,08:43:00,08:43:57,11474,11588,18335.0,24,18340.0,54,18335.0,18340.0,18335.0,18335.0,60,-4,18335,2,18340,52
2016-11-24 08:44:00,08:44:14,08:44:54,11603,11685,18330.0,49,18335.0,27,18330.0,18335.0,18330.0,18335.0,55,3,18335,6,18340,53
2016-11-24 08:45:00,08:45:00,08:45:54,11691,11766,18335.0,8,18340.0,53,18335.0,18335.0,18330.0,18330.0,40,-38,18330,33,18335,23
2016-11-24 08:46:00,08:46:18,08:46:43,11783,11813,18330.0,33,18335.0,22,18330.0,18335.0,18330.0,18330.0,51,-49,18330,33,18335,24
2016-11-24 08:47:00,08:47:04,08:47:58,11824,11854,18330.0,40,18335.0,26,18330.0,18335.0,18330.0,18330.0,8,-6,18330,66,18335,30
2016-11-24 08:48:00,08:48:11,08:48:58,11863,11937,18330.0,67,18335.0,51,18330.0,18335.0,18330.0,18335.0,41,35,18330,41,18335,9
2016-11-24 08:49:00,08:49:12,08:49:49,11945,11993,18330.0,40,18335.0,54,18330.0,18335.0,18330.0,18335.0,27,-13,18330,70,18335,23
2016-11-24 08:50:00,08:50:02,08:50:56,12000,12072,18330.0,72,18335.0,32,18330.0,18335.0,18330.0,18335.0,38,-12,18330,70,18335,26
2016-11-24 08:51:00,08:51:01,08:51:41,12082,12137,18330.0,71,18335.0,31,18335.0,18335.0,18330.0,18330.0,23,11,18330,65,18335,33
2016-11-24 08:52:00,08:52:06,08:52:55,12153,12205,18330.0,69,18335.0,31,18330.0,18335.0,18330.0,18330.0,37,23,18330,68,18335,34
2016-11-24 08:53:00,08:53:20,08:53:45,12218,12238,18330.0,69,18335.0,24,18335.0,18335.0,18330.0,18330.0,6,-4,18330,85,18335,31
2016-11-24 08:54:00,08:54:00,08:54:58,12247,12375,18330.0,85,18335.0,34,18335.0,18340.0,18325.0,18325.0,126,-34,18320,30,18325,28
2016-11-24 08:55:00,08:55:00,08:55:56,12381,12527,18320.0,31,18325.0,20,18320.0,18335.0,18320.0,18335.0,135,107,18335,32,18340,35
2016-11-24 08:56:00,08:56:00,08:56:54,12533,12632,18335.0,37,18340.0,33,18335.0,18340.0,18335.0,18335.0,86,-20,18330,32,18340,73
2016-11-24 08:57:00,08:57:08,08:57:39,12655,12767,18330.0,31,18335.0,37,18335.0,18340.0,18335.0,18340.0,171,109,18340,19,18345,66
2016-11-24 08:58:00,08:58:00,08:58:50,12778,12871,18340.0,27,18345.0,65,18340.0,18345.0,18340.0,18345.0,159,92,18340,48,18345,1
2016-11-24 08:59:00,08:59:14,08:59:58,12893,12997,18340.0,38,18345.0,70,18340.0,18340.0,18335.0,18335.0,82,-47,18335,27,18340,52
2016-11-24 09:00:00,09:00:00,09:00:48,13001,13090,18335.0,28,18340.0,52,18335.0,18340.0,18335.0,18340.0,78,30,18335,43,18340,43
2016-11-24 09:01:00,09:01:00,09:01:40,13095,13128,18335.0,45,18340.0,50,18335.0,18340.0,18335.0,18340.0,21,17,18335,41,18340,41
2016-11-24 09:02:00,09:02:03,09:02:50,13137,13161,18335.0,43,18340.0,38,18335.0,18340.0,18335.0,18340.0,6,0,18335,44,18340,36
2016-11-24 09:03:00,09:03:19,09:03:36,13171,13179,18335.0,44,18340.0,35,18335.0,18340.0,18335.0,18335.0,4,-2,18335,42,18340,36
2016-11-24 09:04:00,09:04:16,09:04:52,13193,13326,18335.0,48,18340.0,31,18335.0,18350.0,18335.0,18345.0,177,-40,18340,86,18345,2
2016-11-24 09:05:00,09:05:05,09:05:47,13342,13429,18340.0,51,18345.0,27,18340.0,18340.0,18335.0,18340.0,60,-34,18335,49,18345,56
2016-11-24 09:06:00,09:06:00,09:06:00,0,0,0.0,0,0.0,0,18340.0,18340.0,18340.0,18340.0,0,0,0,0,0,0
2016-11-24 09:07:00,09:07:06,09:07:40,13476,13539,18340.0,32,18345.0,50,18345.0,18345.0,18340.0,18345.0,47,-21,18340,50,18345,12
2016-11-24 09:08:00,09:08:01,09:08:01,13546,13581,18340.0,52,18345.0,19,18340.0,18340.0,18340.0,18340.0,60,-36,18335,52,18345,30
2016-11-24 09:09:00,09:09:15,09:09:43,13636,13720,18335.0,46,18340.0,25,18335.0,18340.0,18335.0,18340.0,135,37,18340,39,18345,31
2016-11-24 09:10:00,09:10:00,09:10:38,13731,13745,18340.0,25,18345.0,54,18340.0,18345.0,18340.0,18345.0,2,0,18340,36,18345,55
2016-11-24 09:11:00,09:11:10,09:11:40,13763,13824,18340.0,62,18345.0,46,18345.0,18345.0,18345.0,18345.0,46,-24,18340,29,18345,40
2016-11-24 09:12:00,09:12:36,09:12:56,13842,13862,18340.0,50,18345.0,36,18345.0,18345.0,18345.0,18345.0,21,21,18340,54,18345,12
2016-11-24 09:13:00,09:13:06,09:13:52,13869,13913,18340.0,54,18345.0,26,18345.0,18345.0,18345.0,18345.0,44,44,18345,40,18350,30
2016-11-24 09:14:00,09:14:01,09:14:59,13926,14034,18345.0,42,18350.0,52,18345.0,18350.0,18340.0,18345.0,163,-47,18345,39,18350,41
2016-11-24 09:15:00,09:15:14,09:15:34,14047,14083,18345.0,37,18350.0,46,18345.0,18345.0,18345.0,18345.0,42,-14,18345,38,18350,43
2016-11-24 09:16:00,09:16:08,09:16:51,14103,14175,18345.0,39,18350.0,47,18350.0,18350.0,18345.0,18345.0,53,9,18340,50,18345,5
2016-11-24 09:17:00,09:17:18,09:17:37,14194,14212,18340.0,50,18345.0,16,18340.0,18345.0,18340.0,18345.0,18,-14,18340,47,18345,21
2016-11-24 09:18:00,09:18:44,09:18:44,14240,14240,18340.0,48,18345.0,25,18345.0,18345.0,18345.0,18345.0,1,1,18340,47,18345,24
2016-11-24 09:19:00,09:19:25,09:19:56,14268,14299,18340.0,48,18345.0,64,18345.0,18345.0,18340.0,18340.0,16,8,18340,13,18345,55
2016-11-24 09:20:00,09:20:00,09:20:59,14303,14477,18340.0,14,18345.0,55,18340.0,18340.0,18335.0,18335.0,207,-115,18335,21,18340,43
2016-11-24 09:21:00,09:21:00,09:21:49,14480,14586,18335.0,21,18340.0,43,18340.0,18340.0,18340.0,18340.0,93,-12,18340,21,18345,49
2016-11-24 09:22:00,09:22:01,09:22:51,14594,14637,18340.0,19,18345.0,49,18340.0,18345.0,18340.0,18345.0,13,11,18340,50,18345,36
2016-11-24 09:23:00,09:23:50,09:23:59,14665,14672,18340.0,49,18345.0,42,18345.0,18345.0,18345.0,18345.0,2,2,18340,47,18345,50
2016-11-24 09:24:00,09:24:31,09:24:53,14677,14711,18340.0,46,18345.0,50,18340.0,18345.0,18340.0,18340.0,19,-15,18335,62,18340,47
2016-11-24 09:25:00,09:25:00,09:25:42,14719,14740,18335.0,52,18340.0,50,18340.0,18340.0,18335.0,18335.0,2,0,18335,55,18340,57
2016-11-24 09:26:00,09:26:14,09:26:51,14760,14809,18335.0,60,18340.0,53,18340.0,18345.0,18340.0,18345.0,13,13,18340,29,18345,56
2016-11-24 09:27:00,09:27:12,09:27:50,14822,14881,18340.0,29,18345.0,57,18345.0,18345.0,18340.0,18345.0,67,65,18340,64,18345,54
2016-11-24 09:28:00,09:28:07,09:28:59,14889,15018,18340.0,65,18345.0,54,18340.0,18340.0,18340.0,18340.0,138,-70,18340,5,18345,61
2016-11-24 09:29:00,09:29:00,09:29:34,15019,15057,18340.0,62,18345.0,55,18340.0,18340.0,18340.0,18340.0,33,-29,18335,58,18340,4
2016-11-24 09:30:00,09:30:00,09:30:32,15084,15165,18335.0,50,18340.0,67,18335.0,18335.0,18335.0,18335.0,87,39,18330,55,18340,65
2016-11-24 09:31:00,09:31:44,09:31:55,15198,15208,18335.0,42,18340.0,58,18340.0,18340.0,18340.0,18340.0,2,2,18340,40,18340,51
2016-11-24 09:32:00,09:32:01,09:32:52,15210,15323,18335.0,51,18340.0,51,18340.0,18350.0,18340.0,18350.0,150,150,18345,48,18350,41
2016-11-24 09:33:00,09:33:50,09:33:55,15361,15381,18345.0,35,18350.0,57,18350.0,18350.0,18345.0,18345.0,26,2,18345,20,18350,56
2016-11-24 09:34:00,09:34:20,09:34:38,15395,15465,18345.0,24,18350.0,56,18350.0,18350.0,18345.0,18350.0,103,61,18345,39,18350,14
2016-11-24 09:35:00,09:35:02,09:35:03,15490,15501,18345.0,38,18350.0,40,18345.0,18345.0,18345.0,18345.0,23,-23,18340,60,18345,30
2016-11-24 09:36:00,09:36:19,09:36:55,15536,15622,18340.0,74,18345.0,24,18345.0,18345.0,18345.0,18345.0,81,36,18345,27,18350,39
2016-11-24 09:37:00,09:37:01,09:37:48,15629,15673,18345.0,26,18350.0,42,18345.0,18345.0,18340.0,18340.0,21,-15,18340,47,18345,25
2016-11-24 09:38:00,09:38:07,09:38:54,15682,15753,18340.0,48,18345.0,21,18345.0,18345.0,18335.0,18335.0,48,17,18335,46,18340,69
2016-11-24 09:39:00,09:39:03,09:39:59,15760,15864,18335.0,46,18340.0,65,18335.0,18335.0,18335.0,18335.0,102,16,18330,57,18340,68
2016-11-24 09:40:00,09:40:00,09:40:45,15865,15946,18335.0,5,18340.0,67,18335.0,18335.0,18330.0,18335.0,67,-56,18330,56,18335,1
2016-11-24 09:41:00,09:41:03,09:41:55,15964,16157,18330.0,56,18335.0,20,18330.0,18335.0,18325.0,18330.0,371,-101,18330,56,18335,40
2016-11-24 09:42:00,09:42:03,09:42:59,16167,16344,18330.0,40,18335.0,65,18335.0,18340.0,18335.0,18340.0,254,205,18340,78,18345,47
2016-11-24 09:43:00,09:43:15,09:43:44,16366,16419,18340.0,86,18345.0,56,18340.0,18340.0,18340.0,18340.0,88,-88,18335,83,18340,42
2016-11-24 09:44:00,09:44:13,09:44:52,16444,16467,18335.0,74,18340.0,65,18335.0,18340.0,18335.0,18335.0,11,-5,18335,65,18340,63
2016-11-24 09:45:00,09:45:06,09:45:58,16475,16586,18335.0,66,18340.0,69,18340.0,18345.0,18335.0,18340.0,170,-30,18335,51,18340,48
2016-11-24 09:46:00,09:46:01,09:46:50,16591,16662,18335.0,51,18340.0,48,18340.0,18345.0,18340.0,18340.0,82,-26,18340,22,18345,72
2016-11-24 09:47:00,09:47:08,09:47:47,16669,16714,18340.0,24,18345.0,74,18340.0,18340.0,18335.0,18340.0,42,-37,18340,10,18345,69
2016-11-24 09:48:00,09:48:21,09:48:50,16743,16834,18340.0,17,18345.0,79,18340.0,18350.0,18340.0,18345.0,98,58,18340,46,18345,56
2016-11-24 09:49:00,09:49:09,09:49:54,16848,17030,18340.0,51,18345.0,76,18340.0,18355.0,18340.0,18350.0,248,48,18350,25,18355,26
2016-11-24 09:50:00,09:50:00,09:50:56,17043,17182,18350.0,46,18355.0,41,18355.0,18355.0,18345.0,18350.0,204,10,18345,79,18355,74
2016-11-24 09:51:00,09:51:02,09:51:55,17188,17279,18350.0,8,18355.0,74,18350.0,18355.0,18350.0,18355.0,106,40,18355,21,18360,54
2016-11-24 09:52:00,09:52:00,09:52:58,17289,17412,18355.0,11,18360.0,58,18355.0,18360.0,18355.0,18360.0,110,60,18360,2,18365,60
2016-11-24 09:53:00,09:53:06,09:53:55,17424,17567,18360.0,36,18365.0,59,18365.0,18365.0,18350.0,18350.0,178,-36,18350,60,18355,96
2016-11-24 09:54:00,09:54:09,09:54:59,17574,17693,18350.0,61,18355.0,97,18350.0,18355.0,18345.0,18355.0,224,20,18350,59,18360,59
2016-11-24 09:55:00,09:55:04,09:55:57,17699,17803,18355.0,11,18360.0,59,18355.0,18355.0,18350.0,18350.0,96,-49,18350,55,18355,32
2016-11-24 09:56:00,09:56:41,09:56:59,17830,17875,18350.0,59,18355.0,30,18350.0,18350.0,18345.0,18345.0,46,-31,18345,58,18350,13
2016-11-24 09:57:00,09:57:00,09:57:51,17878,17961,18345.0,58,18350.0,13,18350.0,18355.0,18345.0,18345.0,90,-26,18345,31,18350,51
2016-11-24 09:58:00,09:58:00,09:58:49,17970,18010,18345.0,34,18350.0,47,18345.0,18350.0,18345.0,18345.0,21,9,18345,23,18350,53
2016-11-24 09:59:00,09:59:00,09:59:54,18025,18150,18345.0,54,18350.0,49,18350.0,18355.0,18350.0,18350.0,113,85,18350,48,18355,29
2016-11-24 10:00:00,10:00:00,10:00:48,18158,18367,18350.0,48,18355.0,18,18355.0,18360.0,18350.0,18355.0,211,169,18350,35,18355,26
2016-11-24 10:01:00,10:01:09,10:01:56,18387,18468,18350.0,57,18355.0,14,18350.0,18355.0,18350.0,18350.0,75,12,18350,55,18355,56
2016-11-24 10:02:00,10:02:08,10:02:59,18474,18513,18350.0,51,18355.0,56,18350.0,18350.0,18350.0,18350.0,6,-6,18350,53,18355,38
2016-11-24 10:03:00,10:03:11,10:03:59,18532,18599,18350.0,59,18355.0,31,18350.0,18355.0,18350.0,18350.0,57,26,18350,50,18355,35
2016-11-24 10:04:00,10:04:02,10:04:54,18606,18642,18350.0,52,18355.0,37,18350.0,18355.0,18350.0,18350.0,10,-4,18350,36,18355,39
2016-11-24 10:05:00,10:05:01,10:05:55,18648,18680,18350.0,39,18355.0,41,18350.0,18355.0,18350.0,18355.0,20,8,18350,29,18355,54
2016-11-24 10:06:00,10:06:04,10:06:34,18686,18706,18350.0,32,18355.0,56,18350.0,18355.0,18350.0,18355.0,8,-4,18350,30,18355,55
2016-11-24 10:07:00,10:07:06,10:07:22,18729,18837,18350.0,28,18355.0,58,18350.0,18350.0,18345.0,18350.0,149,-53,18345,75,18355,68
2016-11-24 10:08:00,10:08:07,10:08:54,18875,18960,18350.0,73,18355.0,53,18350.0,18360.0,18350.0,18355.0,78,26,18355,36,18360,53
2016-11-24 10:09:00,10:09:06,10:09:58,18970,19108,18355.0,34,18360.0,54,18355.0,18360.0,18355.0,18355.0,195,7,18350,55,18355,2
2016-11-24 10:10:00,10:10:01,10:10:37,19113,19171,18350.0,55,18355.0,7,18355.0,18360.0,18355.0,18360.0,58,-2,18355,33,18360,38
2016-11-24 10:11:00,10:11:16,10:11:54,19199,19288,18355.0,33,18360.0,65,18355.0,18365.0,18355.0,18360.0,148,84,18355,32,18360,42
2016-11-24 10:12:00,10:12:01,10:12:59,19303,19382,18355.0,33,18360.0,44,18355.0,18355.0,18355.0,18355.0,79,3,18350,55,18355,27
2016-11-24 10:13:00,10:13:05,10:13:57,19385,19456,18350.0,57,18355.0,30,18355.0,18355.0,18350.0,18355.0,41,27,18355,6,18360,58
2016-11-24 10:14:00,10:14:05,10:14:58,19466,19514,18355.0,32,18360.0,52,18355.0,18355.0,18350.0,18350.0,31,-31,18350,64,18355,29
2016-11-24 10:15:00,10:15:24,10:15:35,19533,19547,18350.0,63,18355.0,42,18350.0,18355.0,18350.0,18355.0,9,-3,18350,60,18355,30
2016-11-24 10:16:00,10:16:29,10:16:37,19567,19576,18350.0,66,18355.0,40,18350.0,18355.0,18350.0,18350.0,7,-5,18350,59,18355,33
2016-11-24 10:17:00,10:17:34,10:17:42,19590,19605,18350.0,62,18355.0,39,18350.0,18355.0,18350.0,18355.0,10,-2,18350,58,18355,27
2016-11-24 10:18:00,10:18:11,10:18:44,19610,19655,18350.0,59,18355.0,32,18355.0,18355.0,18350.0,18355.0,33,19,18350,53,18355,22
2016-11-24 10:19:00,10:19:17,10:19:52,19665,19754,18350.0,50,18355.0,46,18350.0,18355.0,18345.0,18345.0,94,-84,18340,65,18345,49
2016-11-24 10:20:00,10:20:25,10:20:47,19776,19798,18340.0,79,18345.0,65,18345.0,18345.0,18340.0,18340.0,14,-2,18340,76,18345,68
2016-11-24 10:21:00,10:21:42,10:21:47,19824,19847,18340.0,73,18345.0,73,18340.0,18345.0,18340.0,18345.0,46,-44,18340,55,18345,89
2016-11-24 10:22:00,10:22:23,10:22:47,19863,19914,18340.0,63,18345.0,81,18345.0,18345.0,18340.0,18340.0,75,37,18340,60,18345,24
2016-11-24 10:23:00,10:23:44,10:23:50,19956,19968,18340.0,76,18345.0,36,18340.0,18345.0,18340.0,18340.0,7,-5,18340,70,18345,32
2016-11-24 10:24:00,10:24:44,10:24:55,19991,20007,18340.0,76,18345.0,38,18345.0,18345.0,18340.0,18340.0,7,-5,18340,75,18345,29
2016-11-24 10:25:00,10:25:04,10:25:55,20016,20097,18340.0,75,18345.0,29,18345.0,18350.0,18345.0,18345.0,93,35,18345,26,18350,76
2016-11-24 10:26:00,10:26:09,10:26:55,20105,20140,18345.0,28,18350.0,70,18345.0,18350.0,18345.0,18345.0,8,-6,18345,22,18350,76
2016-11-24 10:27:00,10:27:25,10:27:59,20152,20193,18345.0,28,18350.0,78,18345.0,18350.0,18345.0,18345.0,21,7,18345,35,18350,78
2016-11-24 10:28:00,10:28:10,10:28:59,20197,20289,18345.0,36,18350.0,78,18350.0,18350.0,18345.0,18345.0,107,-76,18345,19,18350,73
2016-11-24 10:29:00,10:29:31,10:29:59,20303,20349,18345.0,19,18350.0,69,18345.0,18345.0,18345.0,18345.0,25,-25,18345,17,18350,69
2016-11-24 10:30:00,10:30:02,10:30:56,20356,20400,18345.0,28,18350.0,65,18350.0,18355.0,18350.0,18355.0,35,35,18350,58,18355,52
2016-11-24 10:31:00,10:31:05,10:31:53,20404,20481,18350.0,63,18355.0,52,18350.0,18360.0,18350.0,18360.0,89,39,18355,46,18360,60
2016-11-24 10:32:00,10:32:05,10:32:58,20494,20547,18355.0,45,18360.0,66,18355.0,18360.0,18355.0,18360.0,15,3,18355,72,18360,58
2016-11-24 10:33:00,10:33:04,10:33:59,20551,20705,18355.0,72,18360.0,59,18355.0,18365.0,18355.0,18360.0,213,101,18360,4,18365,66
2016-11-24 10:34:00,10:34:10,10:34:56,20715,20791,18360.0,8,18365.0,69,18360.0,18365.0,18360.0,18365.0,61,38,18360,51,18365,5
2016-11-24 10:35:00,10:35:06,10:35:56,20800,20927,18360.0,51,18365.0,18,18365.0,18365.0,18360.0,18360.0,111,63,18360,48,18365,16
2016-11-24 10:36:00,10:36:06,10:36:57,20932,20969,18360.0,48,18365.0,26,18365.0,18365.0,18365.0,18365.0,22,22,18360,45,18365,26
2016-11-24 10:37:00,10:37:07,10:37:54,20976,21009,18360.0,48,18365.0,22,18365.0,18370.0,18365.0,18370.0,29,29,18365,27,18370,34
2016-11-24 10:38:00,10:38:07,10:38:56,21020,21062,18365.0,27,18370.0,41,18365.0,18365.0,18360.0,18360.0,39,-39,18360,44,18365,28
2016-11-24 10:39:00,10:39:11,10:39:51,21069,21229,18360.0,45,18365.0,28,18365.0,18370.0,18365.0,18365.0,219,93,18360,53,18370,47
2016-11-24 10:40:00,10:40:02,10:40:02,21241,21244,18360.0,53,18365.0,7,18365.0,18365.0,18365.0,18365.0,8,8,18365,42,18370,16
2016-11-24 10:41:00,10:41:04,10:41:59,21275,21321,18365.0,82,18370.0,45,18370.0,18370.0,18370.0,18370.0,25,25,18365,79,18370,23
2016-11-24 10:42:00,10:42:00,10:42:06,21324,21336,18365.0,79,18370.0,23,18370.0,18370.0,18370.0,18370.0,4,4,18365,77,18370,16
2016-11-24 10:43:00,10:43:07,10:43:36,21358,21380,18365.0,40,18370.0,25,18370.0,18370.0,18370.0,18370.0,8,8,18365,35,18370,37
2016-11-24 10:44:00,10:44:06,10:44:40,21387,21409,18365.0,35,18370.0,39,18370.0,18370.0,18370.0,18370.0,10,10,18365,29,18370,33
2016-11-24 10:45:00,10:45:06,10:45:06,21421,21421,18365.0,31,18370.0,34,18370.0,18370.0,18370.0,18370.0,1,1,18365,30,18370,36
2016-11-24 10:46:00,10:46:04,10:46:41,21435,21489,18365.0,31,18370.0,35,18370.0,18375.0,18370.0,18375.0,19,19,18370,53,18375,27
2016-11-24 10:47:00,10:47:08,10:47:36,21498,21608,18370.0,57,18375.0,25,18375.0,18375.0,18370.0,18370.0,220,-112,18370,3,18375,66
2016-11-24 10:48:00,10:48:07,10:48:57,21630,21675,18370.0,19,18375.0,66,18370.0,18375.0,18370.0,18370.0,37,-35,18370,5,18375,62
2016-11-24 10:49:00,10:49:00,10:49:00,0,0,0.0,0,0.0,0,18370.0,18370.0,18370.0,18370.0,0,0,0,0,0,0
2016-11-24 10:50:00,10:50:06,10:50:59,21706,21873,18370.0,56,18375.0,83,18375.0,18380.0,18370.0,18375.0,274,92,18375,8,18380,56
2016-11-24 10:51:00,10:51:00,10:51:47,21876,21938,18375.0,8,18380.0,56,18375.0,18375.0,18375.0,18375.0,60,44,18370,66,18380,58
2016-11-24 10:52:00,10:52:04,10:52:59,21955,22045,18375.0,22,18380.0,57,18375.0,18375.0,18375.0,18375.0,64,-18,18375,2,18380,58
2016-11-24 10:53:00,10:53:03,10:53:59,22054,22102,18375.0,10,18380.0,57,18375.0,18375.0,18375.0,18375.0,38,-24,18375,5,18380,58
2016-11-24 10:54:00,10:54:00,10:54:44,22105,22143,18375.0,5,18380.0,58,18375.0,18375.0,18375.0,18375.0,22,16,18370,57,18380,58
2016-11-24 10:55:00,10:55:01,10:55:58,22160,22218,18375.0,15,18380.0,59,18375.0,18375.0,18370.0,18370.0,37,-21,18370,50,18375,34
2016-11-24 10:56:00,10:56:00,10:56:00,0,0,0.0,0,0.0,0,18370.0,18370.0,18370.0,18370.0,0,0,0,0,0,0
2016-11-24 10:57:00,10:57:07,10:57:37,22240,22297,18370.0,54,18375.0,14,18375.0,18375.0,18375.0,18375.0,41,-17,18375,10,18380,61
2016-11-24 10:58:00,10:58:25,10:58:51,22316,22338,18375.0,13,18380.0,62,18375.0,18380.0,18375.0,18380.0,4,0,18375,54,18380,52
2016-11-24 10:59:00,10:59:00,10:59:25,22341,22427,18375.0,29,18380.0,53,18380.0,18385.0,18380.0,18385.0,69,69,18380,46,18385,65
2016-11-24 11:00:00,11:00:06,11:00:59,22440,22526,18380.0,49,18385.0,63,18385.0,18385.0,18380.0,18385.0,85,53,18380,67,18390,57
2016-11-24 11:01:00,11:01:00,11:01:57,22527,22578,18380.0,70,18385.0,2,18385.0,18385.0,18385.0,18385.0,22,14,18380,75,18385,14
2016-11-24 11:02:00,11:02:06,11:02:57,22588,22619,18380.0,72,18385.0,67,18385.0,18385.0,18385.0,18385.0,10,10,18380,58,18385,55
2016-11-24 11:03:00,11:03:07,11:03:58,22621,22650,18380.0,59,18385.0,55,18385.0,18385.0,18385.0,18385.0,8,8,18380,64,18385,56
2016-11-24 11:04:00,11:04:08,11:04:58,22656,22710,18380.0,64,18385.0,57,18385.0,18385.0,18380.0,18385.0,44,-28,18380,27,18385,70
2016-11-24 11:05:00,11:05:19,11:05:59,22727,22796,18380.0,33,18385.0,75,18385.0,18385.0,18385.0,18385.0,68,67,18380,53,18385,47
2016-11-24 11:06:00,11:06:19,11:06:41,22801,22808,18380.0,54,18385.0,46,18385.0,18385.0,18380.0,18380.0,2,0,18380,53,18385,58
2016-11-24 11:07:00,11:07:00,11:07:47,22814,22880,18380.0,52,18385.0,59,18385.0,18385.0,18385.0,18385.0,73,-13,18385,24,18390,58
2016-11-24 11:08:00,11:08:47,11:08:47,22909,22909,18385.0,38,18390.0,59,18390.0,18390.0,18390.0,18390.0,1,1,18385,37,18390,57
2016-11-24 11:09:00,11:09:25,11:09:59,22920,22939,18385.0,30,18390.0,59,18390.0,18390.0,18390.0,18390.0,38,38,18385,46,18390,32
2016-11-24 11:10:00,11:10:00,11:10:33,22941,22960,18385.0,45,18390.0,32,18390.0,18390.0,18390.0,18390.0,4,4,18385,43,18390,30
2016-11-24 11:11:00,11:11:11,11:11:58,22967,23035,18385.0,43,18390.0,41,18390.0,18390.0,18385.0,18385.0,88,34,18380,33,18385,48
2016-11-24 11:12:00,11:12:10,11:12:52,23046,23133,18380.0,59,18385.0,45,18385.0,18385.0,18375.0,18380.0,126,-92,18375,40,18380,1
2016-11-24 11:13:00,11:13:16,11:13:57,23149,23209,18375.0,53,18380.0,39,18380.0,18385.0,18380.0,18385.0,114,-10,18380,46,18390,44
2016-11-24 11:14:00,11:14:40,11:14:58,23219,23259,18385.0,3,18390.0,44,18385.0,18385.0,18385.0,18385.0,42,-40,18380,52,18390,56
2016-11-24 11:15:00,11:15:29,11:15:56,23271,23290,18380.0,47,18385.0,29,18385.0,18385.0,18385.0,18385.0,20,20,18380,57,18390,43
2016-11-24 11:16:00,11:16:07,11:16:11,23300,23306,18380.0,57,18385.0,24,18385.0,18385.0,18385.0,18385.0,2,2,18380,58,18390,44
2016-11-24 11:17:00,11:17:32,11:17:32,23337,23337,18385.0,30,18390.0,41,18390.0,18390.0,18390.0,18390.0,1,1,18385,29,18390,42
2016-11-24 11:18:00,11:18:00,11:18:31,23347,23373,18385.0,35,18390.0,62,18390.0,18390.0,18385.0,18385.0,31,-7,18380,39,18385,33
2016-11-24 11:19:00,11:19:21,11:19:40,23396,23400,18380.0,54,18385.0,34,18385.0,18385.0,18385.0,18385.0,2,2,18380,55,18385,31
2016-11-24 11:20:00,11:20:01,11:20:52,23404,23442,18380.0,55,18385.0,32,18385.0,18385.0,18380.0,18380.0,25,-17,18380,10,18385,64
2016-11-24 11:21:00,11:21:46,11:21:46,23462,23474,18380.0,44,18385.0,41,18385.0,18385.0,18385.0,18385.0,36,36,18385,13,18390,42
2016-11-24 11:22:00,11:22:30,11:22:57,23495,23554,18385.0,28,18390.0,53,18385.0,18390.0,18385.0,18385.0,54,-2,18380,40,18385,13
2016-11-24 11:23:00,11:23:00,11:23:00,0,0,0.0,0,0.0,0,18385.0,18385.0,18385.0,18385.0,0,0,0,0,0,0
2016-11-24 11:24:00,11:24:40,11:24:57,23586,23609,18380.0,45,18385.0,27,18385.0,18385.0,18380.0,18380.0,40,-38,18380,38,18385,36
2016-11-24 11:25:00,11:25:00,11:25:51,23613,23659,18380.0,41,18385.0,36,18380.0,18380.0,18380.0,18380.0,32,-32,18380,45,18385,67
2016-11-24 11:26:00,11:26:07,11:26:44,23666,23682,18380.0,14,18385.0,79,18380.0,18385.0,18380.0,18385.0,2,0,18380,21,18385,69
2016-11-24 11:27:00,11:27:44,11:27:44,23693,23693,18380.0,28,18385.0,68,18385.0,18385.0,18385.0,18385.0,1,1,18380,29,18385,67
2016-11-24 11:28:00,11:28:02,11:28:50,23701,23782,18380.0,22,18385.0,70,18380.0,18380.0,18380.0,18380.0,90,-44,18380,42,18385,27
2016-11-24 11:29:00,11:29:00,11:29:52,23790,23870,18380.0,29,18385.0,49,18380.0,18380.0,18375.0,18375.0,137,-37,18370,58,18380,48
2016-11-24 11:30:00,11:30:00,11:30:21,23887,24025,18370.0,58,18375.0,17,18375.0,18375.0,18365.0,18365.0,153,-33,18365,15,18370,48
2016-11-24 11:31:00,11:31:16,11:31:49,24076,24101,18365.0,54,18370.0,51,18365.0,18370.0,18365.0,18370.0,3,-1,18365,48,18370,74
2016-11-24 11:32:00,11:32:30,11:32:48,24111,24116,18365.0,28,18370.0,79,18365.0,18370.0,18365.0,18370.0,2,0,18365,28,18370,76
2016-11-24 11:33:00,11:33:45,11:33:45,24131,24131,18365.0,33,18370.0,79,18370.0,18370.0,18370.0,18370.0,1,1,18365,32,18370,78
2016-11-24 11:34:00,11:34:20,11:34:35,24141,24242,18365.0,33,18370.0,83,18365.0,18370.0,18365.0,18370.0,121,117,18365,40,18370,8
2016-11-24 11:35:00,11:35:04,11:35:54,24261,24321,18365.0,64,18370.0,55,18370.0,18375.0,18370.0,18370.0,34,-4,18365,31,18370,63
2016-11-24 11:36:00,11:36:28,11:36:59,24335,24373,18365.0,32,18370.0,58,18370.0,18370.0,18365.0,18370.0,8,4,18365,22,18370,58
2016-11-24 11:37:00,11:37:04,11:37:44,24381,24478,18365.0,59,18370.0,58,18370.0,18375.0,18370.0,18370.0,95,61,18365,83,18370,17
2016-11-24 11:38:00,11:38:00,11:38:57,24486,24593,18365.0,77,18370.0,45,18370.0,18375.0,18370.0,18370.0,92,16,18365,85,18370,11
2016-11-24 11:39:00,11:39:00,11:39:56,24597,24674,18365.0,86,18370.0,11,18370.0,18380.0,18370.0,18380.0,58,58,18375,33,18380,42
2016-11-24 11:40:00,11:40:21,11:40:55,24687,24814,18375.0,39,18380.0,41,18380.0,18385.0,18380.0,18385.0,153,153,18380,51,18385,25
2016-11-24 11:41:00,11:41:02,11:41:59,24821,25001,18380.0,51,18385.0,25,18385.0,18390.0,18375.0,18375.0,317,-179,18370,66,18375,14
2016-11-24 11:42:00,11:42:03,11:42:55,25004,25064,18370.0,66,18375.0,14,18375.0,18375.0,18370.0,18375.0,24,22,18370,81,18375,27
2016-11-24 11:43:00,11:43:00,11:43:00,0,0,0.0,0,0.0,0,18375.0,18375.0,18375.0,18375.0,0,0,0,0,0,0
2016-11-24 11:44:00,11:44:00,11:44:55,25081,25111,18370.0,82,18375.0,52,18375.0,18375.0,18375.0,18375.0,2,2,18370,65,18375,60
2016-11-24 11:45:00,11:45:05,11:45:59,25117,25233,18370.0,66,18375.0,65,18370.0,18370.0,18365.0,18365.0,200,-162,18360,67,18370,61
2016-11-24 11:46:00,11:46:02,11:46:54,25238,25290,18360.0,67,18365.0,5,18365.0,18365.0,18365.0,18365.0,13,-4,18365,41,18370,64
2016-11-24 11:47:00,11:47:03,11:47:59,25296,25313,18365.0,38,18370.0,64,18370.0,18370.0,18370.0,18370.0,2,2,18365,41,18370,64
2016-11-24 11:48:00,11:48:14,11:48:29,25322,25357,18365.0,40,18370.0,70,18365.0,18365.0,18360.0,18360.0,35,-35,18360,67,18365,38
2016-11-24 11:49:00,11:49:02,11:49:20,25381,25384,18360.0,80,18365.0,32,18365.0,18365.0,18360.0,18360.0,2,0,18360,79,18365,41
2016-11-24 11:50:00,11:50:04,11:50:55,25394,25460,18360.0,80,18365.0,44,18365.0,18365.0,18360.0,18365.0,79,69,18365,26,18370,63
2016-11-24 11:51:00,11:51:00,11:51:00,0,0,0.0,0,0.0,0,18365.0,18365.0,18365.0,18365.0,0,0,0,0,0,0
2016-11-24 11:52:00,11:52:07,11:52:29,25485,25525,18365.0,28,18370.0,64,18370.0,18370.0,18365.0,18365.0,80,50,18360,69,18365,14
2016-11-24 11:53:00,11:53:05,11:53:23,25539,25571,18360.0,87,18365.0,14,18360.0,18365.0,18360.0,18365.0,41,-17,18360,71,18365,6
2016-11-24 11:54:00,11:54:33,11:54:45,25609,25638,18360.0,74,18365.0,8,18365.0,18365.0,18365.0,18365.0,29,-3,18360,68,18365,21
2016-11-24 11:55:00,11:55:09,11:55:55,25659,25676,18360.0,68,18365.0,20,18365.0,18365.0,18365.0,18365.0,9,9,18360,70,18365,23
2016-11-24 11:56:00,11:56:12,11:56:43,25683,25720,18360.0,71,18365.0,31,18365.0,18365.0,18365.0,18365.0,34,31,18365,4,18370,60
2016-11-24 11:57:00,11:57:16,11:57:27,25747,25791,18365.0,40,18370.0,60,18365.0,18365.0,18365.0,18365.0,52,1,18365,10,18370,61
2016-11-24 11:58:00,11:58:02,11:58:14,25812,25825,18365.0,31,18370.0,63,18365.0,18365.0,18365.0,18365.0,21,-21,18365,16,18370,67
2016-11-24 11:59:00,11:59:23,11:59:59,25842,25901,18365.0,39,18370.0,65,18365.0,18365.0,18365.0,18365.0,64,10,18360,73,18370,62
2016-11-24 12:00:00,12:00:07,12:00:34,25914,25945,18360.0,77,18365.0,1,18365.0,18370.0,18365.0,18365.0,23,-3,18360,75,18365,4
2016-11-24 12:01:00,12:01:20,12:01:56,25987,26135,18360.0,84,18365.0,20,18360.0,18360.0,18350.0,18350.0,229,-215,18345,77,18350,39
2016-11-24 12:02:00,12:02:00,12:02:29,26142,26226,18345.0,77,18350.0,41,18350.0,18355.0,18350.0,18355.0,92,61,18350,66,18355,39
2016-11-24 12:03:00,12:03:18,12:03:46,26245,26300,18350.0,57,18355.0,44,18355.0,18355.0,18350.0,18350.0,58,0,18350,40,18355,32
2016-11-24 12:04:00,12:04:06,12:04:39,26313,26374,18350.0,45,18355.0,27,18355.0,18360.0,18355.0,18355.0,68,-20,18350,51,18360,62
2016-11-24 12:05:00,12:05:55,12:05:55,26412,26414,18350.0,69,18355.0,20,18350.0,18350.0,18350.0,18350.0,5,-5,18350,68,18355,21
2016-11-24 12:06:00,12:06:04,12:06:41,26420,26502,18350.0,66,18355.0,16,18355.0,18360.0,18355.0,18360.0,37,15,18355,66,18360,53
2016-11-24 12:07:00,12:07:01,12:07:59,26512,26605,18355.0,68,18360.0,52,18360.0,18360.0,18355.0,18355.0,114,-102,18355,22,18360,56
2016-11-24 12:08:00,12:08:11,12:08:43,26612,26679,18355.0,19,18360.0,58,18355.0,18355.0,18350.0,18355.0,67,10,18355,11,18360,51
2016-11-24 12:09:00,12:09:02,12:09:39,26694,26752,18355.0,15,18360.0,51,18355.0,18355.0,18350.0,18355.0,41,20,18350,48,18355,5
2016-11-24 12:10:00,12:10:10,12:10:51,26774,26834,18350.0,60,18355.0,11,18350.0,18355.0,18350.0,18355.0,38,4,18350,62,18360,65
2016-11-24 12:11:00,12:11:03,12:11:53,26839,26874,18350.0,62,18360.0,62,18355.0,18355.0,18350.0,18350.0,19,-16,18350,38,18355,52
2016-11-24 12:12:00,12:12:16,12:12:53,26894,26956,18350.0,115,18355.0,24,18355.0,18355.0,18355.0,18355.0,37,16,18350,109,18355,12
2016-11-24 12:13:00,12:13:04,12:13:43,26966,27008,18350.0,109,18355.0,13,18355.0,18355.0,18355.0,18355.0,30,-2,18350,98,18355,16
2016-11-24 12:14:00,12:14:21,12:14:53,27025,27045,18350.0,100,18355.0,15,18355.0,18355.0,18350.0,18350.0,3,-1,18350,102,18355,15
2016-11-24 12:15:00,12:15:12,12:15:55,27066,27145,18350.0,103,18355.0,6,18350.0,18355.0,18350.0,18355.0,124,-110,18350,17,18355,73
2016-11-24 12:16:00,12:16:10,12:16:57,27154,27238,18350.0,15,18355.0,74,18350.0,18350.0,18345.0,18345.0,71,-67,18345,133,18350,25
2016-11-24 12:17:00,12:17:12,12:17:21,27247,27278,18345.0,132,18350.0,31,18350.0,18355.0,18350.0,18355.0,55,55,18350,53,18355,29
2016-11-24 12:18:00,12:18:33,12:18:55,27300,27313,18350.0,58,18355.0,36,18355.0,18355.0,18350.0,18350.0,2,0,18350,57,18355,35
2016-11-24 12:19:00,12:19:06,12:19:46,27319,27348,18350.0,71,18355.0,38,18350.0,18355.0,18350.0,18350.0,4,-2,18350,68,18355,27
2016-11-24 12:20:00,12:20:16,12:20:22,27362,27415,18350.0,69,18355.0,28,18350.0,18360.0,18350.0,18360.0,88,78,18355,33,18360,43
2016-11-24 12:21:00,12:21:07,12:21:45,27434,27565,18355.0,48,18360.0,49,18355.0,18365.0,18355.0,18365.0,191,121,18360,78,18365,13
2016-11-24 12:22:00,12:22:07,12:22:48,27572,27593,18360.0,79,18365.0,13,18360.0,18365.0,18360.0,18360.0,5,-1,18360,77,18365,30
2016-11-24 12:23:00,12:23:30,12:23:59,27606,27651,18360.0,82,18365.0,27,18365.0,18370.0,18365.0,18365.0,51,31,18360,91,18370,72
2016-11-24 12:24:00,12:24:04,12:24:50,27657,27794,18360.0,91,18365.0,5,18365.0,18370.0,18360.0,18365.0,157,13,18360,96,18365,29
2016-11-24 12:25:00,12:25:59,12:25:59,27832,27832,18360.0,92,18365.0,23,18360.0,18360.0,18360.0,18360.0,1,-1,18360,91,18365,29
2016-11-24 12:26:00,12:26:25,12:26:34,27839,27896,18360.0,96,18365.0,31,18365.0,18370.0,18365.0,18365.0,77,1,18360,100,18370,45
2016-11-24 12:27:00,12:27:41,12:27:43,27933,27936,18360.0,99,18365.0,25,18365.0,18365.0,18360.0,18360.0,2,0,18360,97,18365,22
2016-11-24 12:28:00,12:28:23,12:28:37,27948,28114,18360.0,92,18365.0,81,18360.0,18360.0,18350.0,18355.0,303,-105,18350,70,18360,60
2016-11-24 12:29:00,12:29:23,12:29:59,28145,28186,18355.0,28,18360.0,53,18355.0,18355.0,18355.0,18355.0,43,-43,18350,68,18360,61
2016-11-24 12:30:00,12:30:53,12:30:58,28221,28226,18350.0,70,18355.0,13,18355.0,18355.0,18355.0,18355.0,12,10,18355,9,18360,51
2016-11-24 12:31:00,12:31:40,12:31:40,28248,28248,18355.0,29,18360.0,50,18360.0,18360.0,18360.0,18360.0,1,1,18355,28,18360,49
2016-11-24 12:32:00,12:32:04,12:32:07,28264,28293,18355.0,59,18360.0,48,18355.0,18355.0,18355.0,18355.0,60,-60,18355,13,18360,46
2016-11-24 12:33:00,12:33:32,12:33:46,28335,28339,18355.0,42,18360.0,46,18355.0,18360.0,18355.0,18360.0,2,0,18355,41,18360,44
2016-11-24 12:34:00,12:34:42,12:34:42,28353,28353,18355.0,45,18360.0,44,18360.0,18360.0,18360.0,18360.0,1,1,18355,46,18360,43
2016-11-24 12:35:00,12:35:38,12:35:42,28382,28384,18355.0,44,18360.0,51,18355.0,18360.0,18355.0,18360.0,2,0,18355,26,18360,50
2016-11-24 12:36:00,12:36:46,12:36:46,28397,28397,18355.0,29,18360.0,61,18360.0,18360.0,18360.0,18360.0,1,1,18355,28,18360,60
2016-11-24 12:37:00,12:37:49,12:37:49,28420,28420,18355.0,41,18360.0,51,18360.0,18360.0,18360.0,18360.0,1,1,18355,40,18360,49
2016-11-24 12:38:00,12:38:20,12:38:47,28436,28447,18355.0,42,18360.0,51,18355.0,18360.0,18355.0,18360.0,3,-1,18355,40,18360,53
2016-11-24 12:39:00,12:39:15,12:39:47,28458,28468,18355.0,34,18360.0,53,18355.0,18360.0,18355.0,18360.0,3,1,18355,38,18360,49
2016-11-24 12:40:00,12:40:46,12:40:56,28490,28496,18355.0,42,18360.0,52,18360.0,18360.0,18355.0,18355.0,4,-2,18355,39,18360,52
2016-11-24 12:41:00,12:41:47,12:41:47,28514,28514,18355.0,45,18360.0,50,18360.0,18360.0,18360.0,18360.0,1,1,18355,46,18360,49
2016-11-24 12:42:00,12:42:17,12:42:53,28524,28542,18355.0,46,18360.0,50,18360.0,18360.0,18355.0,18360.0,17,-13,18355,25,18360,51
2016-11-24 12:43:00,12:43:16,12:43:52,28550,28572,18355.0,22,18360.0,53,18360.0,18360.0,18355.0,18360.0,17,15,18355,66,18360,38
2016-11-24 12:44:00,12:44:51,12:44:51,28588,28588,18355.0,66,18360.0,39,18360.0,18360.0,18360.0,18360.0,1,1,18355,65,18360,38
2016-11-24 12:45:00,12:45:20,12:45:57,28595,28607,18355.0,64,18360.0,38,18355.0,18360.0,18355.0,18360.0,2,0,18355,61,18360,37
2016-11-24 12:46:00,12:46:57,12:46:57,28615,28615,18355.0,61,18360.0,38,18360.0,18360.0,18360.0,18360.0,1,1,18355,62,18360,37
2016-11-24 12:47:00,12:47:06,12:47:57,28620,28665,18355.0,63,18360.0,36,18355.0,18360.0,18355.0,18360.0,49,-47,18355,29,18360,61
2016-11-24 12:48:00,12:48:15,12:48:47,28676,28744,18355.0,24,18360.0,62,18355.0,18355.0,18355.0,18355.0,77,-60,18350,86,18355,6
2016-11-24 12:49:00,12:49:30,12:49:31,28765,28782,18350.0,88,18355.0,27,18355.0,18355.0,18355.0,18355.0,25,17,18350,90,18360,67
2016-11-24 12:50:00,12:50:47,12:50:59,28841,28875,18350.0,86,18355.0,38,18350.0,18355.0,18350.0,18355.0,33,31,18350,85,18360,68
2016-11-24 12:51:00,12:51:59,12:51:59,28896,28896,18355.0,66,18360.0,66,18360.0,18360.0,18360.0,18360.0,1,1,18355,65,18360,64
2016-11-24 12:52:00,12:52:30,12:52:47,28902,28987,18355.0,66,18360.0,68,18355.0,18355.0,18355.0,18355.0,209,-149,18355,6,18360,66
2016-11-24 12:53:00,12:53:00,12:53:00,0,0,0.0,0,0.0,0,18355.0,18355.0,18355.0,18355.0,0,0,0,0,0,0
2016-11-24 12:54:00,12:54:05,12:54:05,29008,29008,18355.0,23,18360.0,62,18360.0,18360.0,18360.0,18360.0,1,1,18355,22,18360,61
2016-11-24 12:55:00,12:55:00,12:55:55,29021,29128,18355.0,18,18360.0,82,18360.0,18360.0,18355.0,18360.0,93,-41,18350,87,18355,5
2016-11-24 12:56:00,12:56:02,12:56:33,29129,29172,18350.0,86,18360.0,82,18355.0,18355.0,18350.0,18355.0,46,-4,18350,100,18360,132
2016-11-24 12:57:00,12:57:06,12:57:56,29183,29326,18355.0,11,18360.0,132,18355.0,18360.0,18355.0,18360.0,234,79,18355,69,18365,74
2016-11-24 12:58:00,12:58:00,12:58:00,0,0,0.0,0,0.0,0,18360.0,18360.0,18360.0,18360.0,0,0,0,0,0,0
2016-11-24 12:59:00,12:59:08,12:59:41,29356,29451,18355.0,57,18360.0,46,18360.0,18360.0,18360.0,18360.0,99,11,18360,10,18365,66
2016-11-24 13:00:00,13:00:13,13:00:36,29479,29587,18360.0,18,18365.0,68,18365.0,18365.0,18365.0,18365.0,257,157,18360,36,18365,57
2016-11-24 13:01:00,13:01:17,13:01:38,29608,29698,18360.0,25,18365.0,65,18360.0,18360.0,18360.0,18360.0,96,-64,18355,63,18365,61
2016-11-24 13:02:00,13:02:18,13:02:58,29727,29796,18355.0,81,18360.0,46,18360.0,18360.0,18355.0,18355.0,86,-18,18350,85,18355,17
2016-11-24 13:03:00,13:03:00,13:03:50,29801,29912,18350.0,85,18355.0,26,18350.0,18355.0,18350.0,18355.0,100,40,18350,87,18360,74
2016-11-24 13:04:00,13:04:00,13:04:59,29920,29984,18355.0,7,18360.0,74,18355.0,18360.0,18350.0,18360.0,47,19,18350,94,18360,72
2016-11-24 13:05:00,13:05:01,13:05:41,29988,30046,18350.0,96,18360.0,72,18355.0,18355.0,18355.0,18355.0,10,6,18355,10,18360,78
2016-11-24 13:06:00,13:06:06,13:06:54,30058,30123,18355.0,21,18360.0,78,18360.0,18360.0,18355.0,18355.0,49,-15,18350,87,18355,5
2016-11-24 13:07:00,13:07:06,13:07:57,30131,30212,18350.0,84,18355.0,13,18350.0,18360.0,18350.0,18355.0,57,7,18355,35,18360,73
2016-11-24 13:08:00,13:08:02,13:08:57,30223,30274,18355.0,25,18360.0,74,18355.0,18355.0,18350.0,18350.0,22,-22,18350,84,18360,77
2016-11-24 13:09:00,13:09:02,13:09:58,30276,30354,18350.0,84,18360.0,79,18355.0,18360.0,18355.0,18355.0,45,-7,18355,29,18360,62
2016-11-24 13:10:00,13:10:08,13:10:59,30361,30382,18355.0,31,18360.0,62,18355.0,18355.0,18355.0,18355.0,5,-5,18355,34,18360,79
2016-11-24 13:11:00,13:11:07,13:11:46,30385,30429,18355.0,35,18360.0,65,18360.0,18360.0,18355.0,18360.0,44,34,18355,32,18360,62
2016-11-24 13:12:00,13:12:14,13:12:56,30448,30484,18355.0,26,18360.0,63,18360.0,18360.0,18355.0,18355.0,19,11,18355,35,18360,69
2016-11-24 13:13:00,13:13:11,13:13:55,30488,30614,18355.0,37,18360.0,70,18355.0,18365.0,18355.0,18365.0,154,71,18360,52,18365,58
2016-11-24 13:14:00,13:14:17,13:14:58,30626,30655,18360.0,54,18365.0,59,18360.0,18365.0,18360.0,18360.0,12,2,18360,48,18365,53
2016-11-24 13:15:00,13:15:06,13:15:55,30657,30722,18360.0,48,18365.0,60,18365.0,18365.0,18360.0,18365.0,33,21,18360,98,18370,65
2016-11-24 13:16:00,13:16:06,13:16:59,30732,30816,18360.0,99,18365.0,27,18365.0,18365.0,18360.0,18360.0,65,39,18360,78,18365,55
2016-11-24 13:17:00,13:17:04,13:17:50,30820,30863,18360.0,80,18365.0,62,18365.0,18365.0,18360.0,18360.0,78,-50,18360,42,18365,63
2016-11-24 13:18:00,13:18:00,13:18:56,30867,30901,18360.0,44,18365.0,63,18360.0,18365.0,18360.0,18360.0,21,11,18360,41,18365,52
2016-11-24 13:19:00,13:19:01,13:19:41,30903,30964,18360.0,41,18365.0,59,18365.0,18365.0,18360.0,18360.0,57,-35,18355,77,18360,27
2016-11-24 13:20:00,13:20:04,13:20:22,30976,31011,18355.0,76,18360.0,59,18360.0,18360.0,18355.0,18360.0,19,11,18355,79,18360,46
2016-11-24 13:21:00,13:21:08,13:21:52,31032,31122,18355.0,62,18360.0,58,18355.0,18360.0,18355.0,18360.0,92,46,18355,90,18365,64
2016-11-24 13:22:00,13:22:19,13:22:57,31134,31195,18360.0,18,18365.0,59,18360.0,18365.0,18360.0,18365.0,53,39,18360,64,18365,26
2016-11-24 13:23:00,13:23:18,13:23:50,31209,31239,18360.0,72,18365.0,27,18365.0,18365.0,18360.0,18360.0,5,-1,18360,70,18365,31
2016-11-24 13:24:00,13:24:00,13:24:56,31246,31368,18360.0,72,18365.0,31,18360.0,18365.0,18360.0,18360.0,178,58,18360,69,18365,37
2016-11-24 13:25:00,13:25:24,13:25:57,31383,31410,18360.0,71,18365.0,45,18360.0,18365.0,18360.0,18360.0,11,5,18360,60,18365,63
2016-11-24 13:26:00,13:26:00,13:26:58,31413,31456,18360.0,62,18365.0,71,18365.0,18365.0,18360.0,18360.0,20,10,18360,64,18365,55
2016-11-24 13:27:00,13:27:08,13:27:59,31472,31571,18360.0,61,18365.0,61,18360.0,18360.0,18360.0,18360.0,111,-109,18360,9,18365,65
2016-11-24 13:28:00,13:28:03,13:28:42,31575,31618,18360.0,10,18365.0,65,18360.0,18360.0,18355.0,18360.0,51,-14,18355,96,18360,56
2016-11-24 13:29:00,13:29:06,13:29:56,31625,31663,18355.0,103,18360.0,60,18360.0,18360.0,18355.0,18360.0,26,18,18355,102,18360,40
2016-11-24 13:30:00,13:30:01,13:30:52,31665,31753,18355.0,103,18360.0,40,18360.0,18360.0,18355.0,18355.0,71,15,18355,93,18360,24
2016-11-24 13:31:00,13:31:00,13:31:52,31761,31814,18355.0,95,18360.0,18,18360.0,18360.0,18355.0,18355.0,26,18,18355,88,18360,29
2016-11-24 13:32:00,13:32:06,13:32:53,31823,31877,18355.0,80,18360.0,26,18360.0,18360.0,18355.0,18355.0,30,28,18355,87,18360,21
2016-11-24 13:33:00,13:33:03,13:33:54,31882,31927,18355.0,87,18360.0,21,18360.0,18360.0,18355.0,18355.0,17,9,18355,76,18360,29
2016-11-24 13:34:00,13:34:13,13:34:49,31931,31972,18355.0,74,18360.0,29,18360.0,18360.0,18355.0,18360.0,21,17,18355,80,18360,15
2016-11-24 13:35:00,13:35:23,13:35:59,31985,32093,18355.0,75,18360.0,10,18360.0,18360.0,18355.0,18355.0,128,-63,18350,160,18360,78
2016-11-24 13:36:00,13:36:09,13:36:59,32106,32162,18350.0,153,18355.0,10,18355.0,18355.0,18350.0,18350.0,31,11,18350,148,18355,18
2016-11-24 13:37:00,13:37:09,13:37:44,32173,32234,18350.0,151,18355.0,10,18355.0,18360.0,18355.0,18360.0,36,22,18355,54,18360,59
2016-11-24 13:38:00,13:38:07,13:38:58,32255,32312,18355.0,62,18360.0,62,18355.0,18360.0,18355.0,18360.0,22,14,18355,96,18360,25
2016-11-24 13:39:00,13:39:07,13:39:55,32326,32369,18355.0,91,18360.0,64,18355.0,18360.0,18355.0,18360.0,11,5,18355,92,18360,18
2016-11-24 13:40:00,13:40:04,13:40:56,32385,32499,18355.0,93,18360.0,30,18360.0,18360.0,18355.0,18360.0,109,49,18355,275,18360,13
2016-11-24 13:41:00,13:41:12,13:41:53,32514,32578,18355.0,283,18360.0,17,18360.0,18360.0,18355.0,18360.0,30,28,18355,90,18360,14
2016-11-24 13:42:00,13:42:07,13:42:51,32588,32641,18355.0,86,18360.0,20,18360.0,18360.0,18355.0,18355.0,44,34,18355,80,18360,41
2016-11-24 13:43:00,13:43:00,13:43:47,32656,32709,18355.0,77,18360.0,39,18360.0,18360.0,18355.0,18360.0,41,39,18355,113,18360,67
2016-11-24 13:44:00,13:44:01,13:44:51,32724,32790,18355.0,118,18360.0,89,18355.0,18360.0,18355.0,18355.0,41,19,18355,108,18360,78
2016-11-24 13:45:00,13:45:00,13:45:55,32795,32864,18355.0,109,18360.0,68,18360.0,18360.0,18355.0,18355.0,46,-26,18355,58,18360,93
2016-11-24 13:46:00,13:46:02,13:46:49,32876,32970,18355.0,87,18360.0,103,18355.0,18355.0,18355.0,18355.0,151,-74,18350,184,18360,103
2016-11-24 13:47:00,13:47:06,13:47:59,32993,33101,18355.0,32,18360.0,89,18355.0,18355.0,18350.0,18355.0,80,-26,18350,174,18360,89
2016-11-24 13:48:00,13:48:00,13:48:47,33104,33148,18350.0,174,18360.0,89,18355.0,18355.0,18355.0,18355.0,12,-6,18355,39,18360,77
2016-11-24 13:49:00,13:49:05,13:49:54,33162,33245,18355.0,47,18360.0,78,18355.0,18360.0,18355.0,18355.0,142,-110,18350,189,18355,13
2016-11-24 13:50:00,13:50:01,13:50:56,33253,33354,18350.0,191,18355.0,27,18355.0,18355.0,18350.0,18350.0,49,37,18350,179,18355,12
2016-11-24 13:51:00,13:51:29,13:51:57,33386,33522,18350.0,179,18355.0,14,18355.0,18355.0,18340.0,18340.0,277,-209,18340,110,18345,25
2016-11-24 13:52:00,13:52:17,13:52:58,33571,33766,18340.0,117,18345.0,34,18340.0,18345.0,18340.0,18340.0,272,30,18340,18,18345,95
2016-11-24 13:53:00,13:53:02,13:53:34,33775,33853,18340.0,11,18345.0,97,18340.0,18340.0,18335.0,18340.0,52,-12,18340,59,18345,102
2016-11-24 13:54:00,13:54:01,13:54:53,33884,33988,18340.0,48,18345.0,96,18340.0,18345.0,18340.0,18340.0,98,-90,18340,15,18345,92
2016-11-24 13:55:00,13:55:17,13:55:58,34016,34072,18340.0,19,18345.0,93,18340.0,18345.0,18340.0,18340.0,23,-15,18340,37,18345,83
2016-11-24 13:56:00,13:56:00,13:56:58,34076,34259,18340.0,36,18345.0,86,18345.0,18345.0,18340.0,18340.0,337,-81,18340,141,18345,51
2016-11-24 13:57:00,13:57:01,13:57:57,34263,34439,18340.0,142,18345.0,51,18345.0,18345.0,18335.0,18340.0,259,-27,18335,121,18340,1
2016-11-24 13:58:00,13:58:00,13:58:57,34441,34636,18335.0,115,18340.0,1,18340.0,18345.0,18335.0,18345.0,276,104,18340,140,18345,13
2016-11-24 13:59:00,13:59:02,13:59:59,34650,35004,18340.0,115,18345.0,72,18340.0,18350.0,18335.0,18335.0,621,-178,18335,21,18340,81
2016-11-24 14:00:00,14:00:00,14:00:55,35005,35592,18335.0,90,18340.0,35,18340.0,18345.0,18330.0,18330.0,1099,-433,18330,76,18335,148
2016-11-24 14:01:00,14:01:00,14:01:50,35605,35819,18330.0,110,18335.0,152,18335.0,18340.0,18330.0,18335.0,444,-58,18335,16,18340,139
2016-11-24 14:02:00,14:02:11,14:02:54,35860,35934,18335.0,128,18340.0,157,18340.0,18340.0,18340.0,18340.0,67,67,18335,206,18340,33
2016-11-24 14:03:00,14:03:00,14:03:58,35940,36088,18335.0,207,18340.0,36,18340.0,18340.0,18330.0,18340.0,305,29,18335,37,18340,123
2016-11-24 14:04:00,14:04:00,14:04:58,36091,36170,18335.0,37,18340.0,123,18340.0,18340.0,18335.0,18335.0,114,-38,18330,117,18335,130
2016-11-24 14:05:00,14:05:02,14:05:58,36177,36225,18330.0,115,18335.0,120,18335.0,18335.0,18330.0,18330.0,84,72,18330,209,18335,58
2016-11-24 14:06:00,14:06:02,14:06:23,36235,36289,18330.0,217,18335.0,78,18335.0,18335.0,18330.0,18335.0,105,99,18335,106,18340,131
2016-11-24 14:07:00,14:07:10,14:07:56,36329,36447,18335.0,153,18340.0,133,18335.0,18340.0,18335.0,18340.0,188,162,18340,17,18345,100
2016-11-24 14:08:00,14:08:02,14:08:46,36458,36573,18340.0,25,18345.0,107,18340.0,18345.0,18340.0,18340.0,237,13,18340,67,18345,58
