,ST,ET,sidx,eidx,bB,bBS,bA,bAS,O,H,L,C,V,OF,eB,eBS,eA,eAS
2016-10-11 08:00:00,08:00:00,08:00:59,2267,2596,16925.0,22,16930.0,21,16930.0,16945.0,16925.0,16940.0,340,57,16940,26,16945,74
2016-10-11 08:01:00,08:01:02,08:01:54,2604,3091,16940.0,42,16945.0,72,16945.0,16945.0,16925.0,16930.0,696,-249,16925,30,16930,47
2016-10-11 08:02:00,08:02:00,08:02:59,3107,3353,16925.0,41,16930.0,47,16930.0,16945.0,16925.0,16945.0,224,132,16940,56,16945,25
2016-10-11 08:03:00,08:03:00,08:03:59,3356,3706,16940.0,56,16945.0,25,16945.0,16955.0,16940.0,16950.0,353,249,16950,58,16955,38
2016-10-11 08:04:00,08:04:01,08:04:58,3711,4203,16950.0,59,16955.0,39,16955.0,16990.0,16955.0,16975.0,772,392,16970,85,16975,46
2016-10-11 08:05:00,08:05:02,08:05:10,4213,4248,16970.0,102,16975.0,6,16975.0,16980.0,16975.0,16980.0,37,37,16975,56,16980,51
2016-10-11 08:06:00,08:06:02,08:06:57,4300,4494,16975.0,54,16980.0,72,16980.0,16980.0,16970.0,16970.0,264,-176,16970,19,16975,64
2016-10-11 08:07:00,08:07:00,08:07:56,4503,4687,16970.0,32,16975.0,63,16975.0,16980.0,16975.0,16975.0,204,50,16975,31,16980,100
2016-10-11 08:08:00,08:08:06,08:08:44,4700,4852,16975.0,56,16980.0,97,16975.0,16975.0,16975.0,16975.0,148,-70,16975,33,16980,102
2016-10-11 08:09:00,08:09:02,08:09:57,4875,5123,16975.0,29,16980.0,142,16975.0,16985.0,16970.0,16980.0,232,190,16980,57,16985,61
2016-10-11 08:10:00,08:10:02,08:10:56,5138,5336,16980.0,70,16985.0,50,16985.0,16990.0,16985.0,16990.0,247,45,16985,88,16990,79
2016-10-11 08:11:00,08:11:01,08:11:37,5344,5398,16985.0,92,16990.0,79,16990.0,16990.0,16985.0,16990.0,56,-44,16985,88,16990,86
2016-10-11 08:12:00,08:12:02,08:12:59,5427,5503,16985.0,92,16990.0,88,16985.0,16990.0,16985.0,16990.0,42,-36,16985,95,16990,118
2016-10-11 08:13:00,08:13:00,08:13:58,5507,5819,16985.0,93,16990.0,118,16985.0,17000.0,16985.0,16995.0,430,132,16990,98,16995,55
2016-10-11 08:14:00,08:14:09,08:14:59,5845,6024,16990.0,95,16995.0,55,16995.0,17000.0,16995.0,17000.0,164,62,16995,65,17000,87
2016-10-11 08:15:00,08:15:00,08:15:57,6031,6277,16995.0,58,17000.0,102,17000.0,17000.0,16995.0,17000.0,307,51,16995,79,17000,27
2016-10-11 08:16:00,08:16:03,08:16:59,6287,6467,16995.0,76,17000.0,59,17000.0,17000.0,16990.0,16990.0,205,-13,16990,51,16995,88
2016-10-11 08:17:00,08:17:11,08:17:44,6484,6541,16990.0,50,16995.0,86,16995.0,16995.0,16995.0,16995.0,29,29,16990,106,16995,57
2016-10-11 08:18:00,08:18:11,08:18:59,6589,6771,16990.0,71,16995.0,87,16995.0,16995.0,16985.0,16985.0,307,11,16985,73,16990,107
2016-10-11 08:19:00,08:19:00,08:19:58,6775,6953,16985.0,73,16990.0,127,16985.0,16990.0,16985.0,16985.0,264,-160,16985,34,16990,123
2016-10-11 08:20:00,08:20:00,08:20:55,6958,7293,16985.0,25,16990.0,123,16990.0,16995.0,16985.0,16995.0,423,63,16990,64,16995,8
2016-10-11 08:21:00,08:21:02,08:21:54,7310,7404,16995.0,52,17000.0,53,17000.0,17000.0,16995.0,17000.0,66,-26,16995,32,17000,59
2016-10-11 08:22:00,08:22:01,08:22:59,7414,7820,16995.0,44,17000.0,56,17000.0,17010.0,16995.0,17005.0,624,-49,17005,13,17010,75
2016-10-11 08:23:00,08:23:02,08:23:56,7826,8188,17005.0,29,17010.0,76,17010.0,17010.0,17000.0,17010.0,468,48,17005,102,17010,85
2016-10-11 08:24:00,08:24:01,08:24:59,8199,8498,17005.0,103,17010.0,62,17010.0,17010.0,17005.0,17010.0,477,-1,17005,57,17010,62
2016-10-11 08:25:00,08:25:00,08:25:53,8502,8641,17005.0,57,17010.0,82,17010.0,17010.0,17005.0,17005.0,143,-43,17000,68,17005,68
2016-10-11 08:26:00,08:26:00,08:26:50,8649,8740,17000.0,58,17005.0,75,17005.0,17005.0,17000.0,17005.0,73,53,17000,68,17005,21
2016-10-11 08:27:00,08:27:01,08:27:59,8759,9243,17000.0,55,17005.0,53,17005.0,17020.0,17000.0,17015.0,755,31,17010,10,17015,45
2016-10-11 08:28:00,08:28:00,08:28:52,9248,9402,17010.0,24,17015.0,43,17010.0,17015.0,17010.0,17015.0,181,74,17010,58,17015,28
2016-10-11 08:29:00,08:29:03,08:29:58,9414,9564,17010.0,58,17015.0,37,17015.0,17015.0,17005.0,17005.0,118,-58,17000,52,17005,1
2016-10-11 08:30:00,08:30:00,08:30:58,9573,9739,17000.0,61,17010.0,42,17005.0,17005.0,17000.0,17005.0,115,50,17005,2,17010,44
2016-10-11 08:31:00,08:31:02,08:31:56,9747,9889,17005.0,26,17010.0,43,17010.0,17015.0,17010.0,17010.0,118,50,17005,38,17010,42
2016-10-11 08:32:00,08:32:00,08:32:57,9891,10017,17005.0,39,17010.0,42,17010.0,17010.0,17005.0,17010.0,62,-18,17005,35,17010,68
2016-10-11 08:33:00,08:33:06,08:33:58,10039,10158,17005.0,55,17010.0,67,17010.0,17015.0,17010.0,17010.0,108,50,17005,47,17010,42
2016-10-11 08:34:00,08:34:04,08:34:59,10163,10288,17005.0,47,17010.0,42,17010.0,17010.0,17005.0,17010.0,95,-53,17005,65,17010,28
2016-10-11 08:35:00,08:35:02,08:35:53,10295,10526,17005.0,63,17010.0,37,17005.0,17010.0,16995.0,17000.0,275,-115,16995,55,17000,63
2016-10-11 08:36:00,08:36:00,08:36:55,10538,10700,16995.0,57,17000.0,62,17000.0,17005.0,16995.0,17000.0,113,-26,16995,51,17000,31
2016-10-11 08:37:00,08:37:01,08:37:56,10709,10832,16995.0,62,17000.0,18,17000.0,17000.0,17000.0,17000.0,34,34,16995,76,17000,17
2016-10-11 08:38:00,08:38:06,08:38:58,10848,11216,16995.0,65,17000.0,51,17000.0,17015.0,17000.0,17010.0,476,88,17010,6,17015,54
2016-10-11 08:39:00,08:39:01,08:39:59,11223,11369,17010.0,21,17015.0,55,17010.0,17015.0,17010.0,17010.0,146,26,17010,26,17015,57
2016-10-11 08:40:00,08:40:02,08:40:59,11374,11597,17010.0,21,17015.0,59,17010.0,17020.0,17010.0,17020.0,214,74,17015,48,17020,70
2016-10-11 08:41:00,08:41:06,08:41:59,11615,11741,17015.0,47,17020.0,77,17020.0,17020.0,17015.0,17020.0,73,11,17015,57,17020,66
2016-10-11 08:42:00,08:42:00,08:42:59,11744,11896,17015.0,57,17020.0,66,17020.0,17020.0,17015.0,17015.0,143,-51,17010,38,17015,83
2016-10-11 08:43:00,08:43:01,08:43:50,11903,12079,17010.0,23,17015.0,84,17010.0,17015.0,17010.0,17015.0,256,69,17010,72,17015,17
2016-10-11 08:44:00,08:44:00,08:44:51,12091,12167,17010.0,64,17015.0,29,17015.0,17015.0,17015.0,17015.0,21,21,17010,73,17015,42
2016-10-11 08:45:00,08:45:01,08:45:55,12180,12366,17010.0,73,17015.0,38,17015.0,17020.0,17015.0,17020.0,229,221,17015,88,17020,32
2016-10-11 08:46:00,08:46:02,08:46:53,12374,12582,17015.0,101,17020.0,16,17020.0,17020.0,17010.0,17010.0,230,-81,17005,62,17010,44
2016-10-11 08:47:00,08:47:03,08:47:58,12598,12654,17005.0,59,17010.0,42,17010.0,17010.0,17010.0,17010.0,39,39,17005,83,17010,27
2016-10-11 08:48:00,08:48:01,08:48:59,12658,12846,17005.0,81,17010.0,27,17010.0,17015.0,17005.0,17005.0,169,-16,17005,1,17010,49
2016-10-11 08:49:00,08:49:00,08:49:56,12849,13011,17005.0,2,17010.0,48,17005.0,17010.0,17005.0,17010.0,93,5,17005,35,17010,48
2016-10-11 08:50:00,08:50:00,08:50:58,13016,13235,17005.0,20,17010.0,55,17005.0,17015.0,17005.0,17015.0,252,14,17015,19,17020,49
2016-10-11 08:51:00,08:51:05,08:51:58,13249,13362,17015.0,32,17020.0,52,17015.0,17020.0,17015.0,17020.0,104,-56,17015,35,17020,54
2016-10-11 08:52:00,08:52:02,08:52:59,13369,13579,17015.0,34,17020.0,55,17020.0,17020.0,17015.0,17020.0,254,72,17015,45,17020,44
2016-10-11 08:53:00,08:53:04,08:53:57,13587,13732,17015.0,44,17020.0,50,17015.0,17020.0,17010.0,17010.0,131,-31,17010,66,17015,51
2016-10-11 08:54:00,08:54:00,08:54:58,13738,13829,17010.0,66,17015.0,48,17015.0,17015.0,17015.0,17015.0,55,55,17010,75,17015,32
2016-10-11 08:55:00,08:55:02,08:55:59,13833,14034,17010.0,75,17015.0,33,17015.0,17020.0,17015.0,17020.0,293,153,17015,41,17020,11
2016-10-11 08:56:00,08:56:00,08:56:56,14037,14406,17015.0,43,17020.0,12,17020.0,17030.0,17015.0,17030.0,633,432,17025,60,17030,3
2016-10-11 08:57:00,08:57:00,08:57:54,14417,14559,17025.0,58,17030.0,52,17030.0,17030.0,17025.0,17030.0,106,80,17025,72,17030,26
2016-10-11 08:58:00,08:58:00,08:58:55,14572,14893,17025.0,76,17030.0,47,17030.0,17045.0,17030.0,17045.0,528,354,17040,65,17045,11
2016-10-11 08:59:00,08:59:01,08:59:46,14909,15065,17040.0,63,17045.0,70,17045.0,17045.0,17040.0,17040.0,137,3,17035,98,17040,47
2016-10-11 09:00:00,09:00:00,09:00:59,15078,15361,17035.0,97,17040.0,73,17040.0,17050.0,17040.0,17050.0,351,55,17045,72,17050,39
2016-10-11 09:01:00,09:01:03,09:01:58,15368,15490,17045.0,78,17050.0,66,17050.0,17050.0,17045.0,17050.0,112,58,17045,67,17050,74
2016-10-11 09:02:00,09:02:00,09:02:48,15493,15591,17045.0,66,17050.0,76,17050.0,17050.0,17045.0,17045.0,124,20,17040,92,17045,22
2016-10-11 09:03:00,09:03:02,09:03:50,15595,15748,17040.0,92,17045.0,21,17045.0,17050.0,17045.0,17050.0,164,-59,17045,39,17050,66
2016-10-11 09:04:00,09:04:00,09:04:52,15759,15857,17045.0,38,17050.0,65,17050.0,17050.0,17045.0,17045.0,55,47,17045,35,17050,73
2016-10-11 09:05:00,09:05:01,09:05:51,15866,15978,17045.0,39,17050.0,86,17050.0,17050.0,17045.0,17045.0,70,-8,17040,89,17045,40
2016-10-11 09:06:00,09:06:01,09:06:41,15985,16013,17040.0,89,17045.0,67,17045.0,17045.0,17040.0,17040.0,11,9,17040,72,17045,96
2016-10-11 09:07:00,09:07:00,09:07:47,16043,16149,17040.0,91,17045.0,70,17045.0,17045.0,17040.0,17040.0,106,-76,17040,31,17045,94
2016-10-11 09:08:00,09:08:01,09:08:56,16167,16361,17040.0,75,17045.0,91,17040.0,17045.0,17040.0,17040.0,237,11,17040,4,17045,89
2016-10-11 09:09:00,09:09:01,09:09:51,16373,16473,17040.0,13,17045.0,87,17045.0,17045.0,17040.0,17045.0,8,-2,17040,18,17045,75
2016-10-11 09:10:00,09:10:00,09:10:48,16493,16587,17040.0,34,17045.0,80,17040.0,17045.0,17040.0,17045.0,24,22,17040,55,17045,58
2016-10-11 09:11:00,09:11:05,09:11:58,16608,16901,17040.0,60,17045.0,66,17045.0,17045.0,17040.0,17040.0,435,-161,17035,80,17045,61
2016-10-11 09:12:00,09:12:09,09:12:46,16910,16967,17040.0,26,17045.0,57,17045.0,17045.0,17040.0,17040.0,46,-21,17040,15,17045,65
2016-10-11 09:13:00,09:13:06,09:13:46,16982,17095,17040.0,19,17045.0,64,17045.0,17045.0,17040.0,17040.0,86,6,17040,19,17045,59
2016-10-11 09:14:00,09:14:00,09:14:57,17106,17218,17040.0,40,17045.0,58,17040.0,17040.0,17035.0,17035.0,108,-94,17035,15,17040,72
2016-10-11 09:15:00,09:15:00,09:15:58,17231,17468,17030.0,94,17035.0,43,17035.0,17040.0,17035.0,17040.0,247,-80,17035,24,17040,108
2016-10-11 09:16:00,09:16:00,09:16:39,17471,17612,17035.0,24,17040.0,108,17035.0,17040.0,17035.0,17040.0,142,-10,17035,29,17040,85
2016-10-11 09:17:00,09:17:01,09:17:34,17628,17728,17035.0,30,17040.0,85,17035.0,17040.0,17035.0,17035.0,123,-93,17030,69,17035,31
2016-10-11 09:18:00,09:18:00,09:18:58,17754,17935,17030.0,76,17035.0,49,17035.0,17040.0,17030.0,17035.0,198,-49,17030,58,17035,19
2016-10-11 09:19:00,09:19:19,09:19:50,17947,18065,17030.0,60,17035.0,48,17035.0,17045.0,17035.0,17045.0,138,126,17040,55,17045,44
2016-10-11 09:20:00,09:20:01,09:20:51,18093,18243,17040.0,76,17045.0,57,17045.0,17050.0,17040.0,17050.0,161,42,17045,47,17050,71
2016-10-11 09:21:00,09:21:01,09:21:58,18252,18489,17045.0,61,17050.0,71,17050.0,17060.0,17045.0,17060.0,263,209,17055,74,17060,37
2016-10-11 09:22:00,09:22:01,09:22:58,18497,18727,17055.0,94,17060.0,36,17060.0,17065.0,17060.0,17065.0,234,130,17060,49,17065,20
2016-10-11 09:23:00,09:23:06,09:23:58,18745,18951,17060.0,71,17065.0,35,17065.0,17065.0,17055.0,17060.0,236,-32,17060,7,17065,115
2016-10-11 09:24:00,09:24:06,09:24:49,18962,19028,17060.0,41,17065.0,115,17060.0,17065.0,17060.0,17065.0,40,-18,17060,41,17065,118
2016-10-11 09:25:00,09:25:01,09:25:56,19035,19165,17060.0,43,17065.0,119,17065.0,17065.0,17060.0,17060.0,167,163,17060,81,17065,22
2016-10-11 09:26:00,09:26:01,09:26:51,19171,19219,17060.0,86,17065.0,40,17065.0,17065.0,17060.0,17065.0,32,-12,17060,70,17065,79
2016-10-11 09:27:00,09:27:02,09:27:45,19231,19358,17060.0,73,17065.0,80,17065.0,17065.0,17055.0,17060.0,205,-173,17055,25,17060,46
2016-10-11 09:28:00,09:28:01,09:28:48,19385,19573,17055.0,44,17060.0,66,17055.0,17060.0,17055.0,17055.0,195,19,17055,4,17060,68
2016-10-11 09:29:00,09:29:12,09:29:55,19609,19712,17055.0,25,17060.0,64,17060.0,17060.0,17050.0,17055.0,92,8,17055,2,17060,68
2016-10-11 09:30:00,09:30:09,09:30:59,19732,19876,17055.0,64,17060.0,51,17060.0,17060.0,17055.0,17055.0,142,-102,17050,92,17060,66
2016-10-11 09:31:00,09:31:00,09:31:55,19881,20054,17055.0,15,17060.0,64,17060.0,17060.0,17055.0,17060.0,132,-23,17055,28,17060,52
2016-10-11 09:32:00,09:32:03,09:32:43,20066,20210,17055.0,31,17060.0,55,17055.0,17060.0,17050.0,17055.0,144,44,17050,66,17055,13
2016-10-11 09:33:00,09:33:01,09:33:54,20238,20291,17050.0,67,17055.0,27,17055.0,17055.0,17055.0,17055.0,11,11,17050,74,17055,60
2016-10-11 09:34:00,09:34:01,09:34:54,20299,20502,17050.0,75,17055.0,63,17055.0,17065.0,17055.0,17065.0,254,120,17060,80,17065,68
2016-10-11 09:35:00,09:35:03,09:35:34,20513,20643,17060.0,70,17065.0,105,17060.0,17065.0,17055.0,17065.0,224,-88,17060,87,17065,47
2016-10-11 09:36:00,09:36:02,09:36:58,20678,20759,17060.0,86,17065.0,56,17065.0,17065.0,17060.0,17060.0,47,25,17060,89,17065,64
2016-10-11 09:37:00,09:37:00,09:37:56,20761,20905,17060.0,89,17065.0,61,17060.0,17070.0,17060.0,17070.0,88,40,17065,54,17070,55
2016-10-11 09:38:00,09:38:00,09:38:57,20907,21081,17065.0,54,17070.0,62,17065.0,17070.0,17065.0,17065.0,148,-61,17060,67,17065,13
2016-10-11 09:39:00,09:39:04,09:39:47,21090,21196,17060.0,67,17065.0,18,17065.0,17070.0,17065.0,17065.0,72,-18,17065,7,17070,52
2016-10-11 09:40:00,09:40:00,09:40:52,21215,21390,17065.0,7,17070.0,59,17065.0,17070.0,17065.0,17065.0,228,-38,17060,64,17065,25
2016-10-11 09:41:00,09:41:04,09:41:56,21406,21890,17060.0,30,17065.0,34,17060.0,17065.0,17045.0,17055.0,774,-298,17055,38,17060,57
2016-10-11 09:42:00,09:42:01,09:42:59,21901,22239,17050.0,75,17055.0,63,17055.0,17065.0,17055.0,17060.0,489,107,17060,9,17065,72
2016-10-11 09:43:00,09:43:00,09:43:59,22240,22477,17060.0,4,17065.0,75,17060.0,17070.0,17060.0,17065.0,296,-106,17060,60,17070,69
2016-10-11 09:44:00,09:44:04,09:44:49,22487,22571,17060.0,53,17065.0,27,17065.0,17065.0,17065.0,17065.0,23,1,17060,56,17065,62
2016-10-11 09:45:00,09:45:08,09:45:41,22595,22719,17060.0,65,17065.0,81,17065.0,17070.0,17065.0,17065.0,158,146,17065,87,17070,42
2016-10-11 09:46:00,09:46:06,09:46:59,22744,22834,17065.0,95,17070.0,51,17065.0,17065.0,17060.0,17065.0,114,-61,17065,123,17070,30
2016-10-11 09:47:00,09:47:00,09:47:37,22839,22883,17065.0,109,17070.0,50,17070.0,17070.0,17065.0,17070.0,15,5,17065,100,17070,75
2016-10-11 09:48:00,09:48:03,09:48:59,22915,22995,17065.0,97,17070.0,65,17070.0,17070.0,17065.0,17065.0,99,-85,17065,8,17070,75
2016-10-11 09:49:00,09:49:00,09:49:51,22996,23181,17065.0,12,17070.0,66,17065.0,17065.0,17060.0,17060.0,212,-171,17060,30,17065,91
2016-10-11 09:50:00,09:50:14,09:50:29,23202,23225,17060.0,74,17065.0,73,17065.0,17065.0,17060.0,17060.0,8,4,17060,94,17065,59
2016-10-11 09:51:00,09:51:03,09:51:48,23239,23263,17060.0,106,17065.0,69,17065.0,17065.0,17060.0,17060.0,9,3,17060,105,17065,78
2016-10-11 09:52:00,09:52:07,09:52:36,23272,23300,17060.0,103,17065.0,82,17065.0,17065.0,17060.0,17060.0,38,-22,17060,85,17065,85
2016-10-11 09:53:00,09:53:08,09:53:54,23314,23350,17060.0,144,17065.0,80,17065.0,17065.0,17060.0,17065.0,14,12,17060,113,17065,81
2016-10-11 09:54:00,09:54:02,09:54:47,23359,23504,17060.0,112,17065.0,87,17060.0,17065.0,17050.0,17050.0,182,-170,17050,5,17055,69
2016-10-11 09:55:00,09:55:00,09:55:59,23525,23705,17050.0,105,17055.0,66,17050.0,17055.0,17050.0,17055.0,190,9,17050,81,17060,147
2016-10-11 09:56:00,09:56:01,09:56:55,23710,23823,17050.0,82,17055.0,18,17055.0,17055.0,17050.0,17050.0,91,-89,17050,28,17055,51
2016-10-11 09:57:00,09:57:26,09:57:57,23872,23917,17050.0,64,17055.0,56,17050.0,17055.0,17050.0,17050.0,42,-40,17045,47,17050,109
2016-10-11 09:58:00,09:58:06,09:58:59,23937,24135,17045.0,21,17050.0,105,17045.0,17050.0,17045.0,17050.0,263,73,17050,13,17055,79
2016-10-11 09:59:00,09:59:00,09:59:29,24138,24185,17050.0,13,17055.0,79,17050.0,17050.0,17045.0,17050.0,11,-1,17045,94,17050,42
2016-10-11 10:00:00,10:00:00,10:00:57,24205,24373,17045.0,93,17050.0,60,17045.0,17050.0,17040.0,17045.0,193,-77,17040,90,17045,58
2016-10-11 10:01:00,10:01:05,10:01:58,24381,24600,17040.0,90,17045.0,44,17045.0,17060.0,17045.0,17060.0,264,168,17055,37,17060,112
2016-10-11 10:02:00,10:02:09,10:02:55,24613,24717,17055.0,44,17060.0,116,17060.0,17060.0,17055.0,17060.0,50,-26,17055,38,17060,112
2016-10-11 10:03:00,10:03:09,10:03:42,24743,24794,17055.0,54,17060.0,112,17060.0,17060.0,17055.0,17055.0,9,5,17055,59,17060,117
2016-10-11 10:04:00,10:04:02,10:04:51,24801,24942,17055.0,54,17060.0,118,17060.0,17060.0,17050.0,17060.0,143,0,17055,51,17060,87
2016-10-11 10:05:00,10:05:21,10:05:52,24982,25085,17055.0,38,17060.0,103,17060.0,17060.0,17055.0,17055.0,97,-71,17050,102,17055,33
2016-10-11 10:06:00,10:06:02,10:06:57,25099,25209,17050.0,109,17055.0,34,17055.0,17060.0,17055.0,17060.0,86,14,17055,18,17060,83
2016-10-11 10:07:00,10:07:00,10:07:48,25215,25320,17055.0,26,17060.0,83,17055.0,17060.0,17055.0,17055.0,61,-19,17050,99,17055,74
2016-10-11 10:08:00,10:08:02,10:08:59,25343,25495,17050.0,75,17055.0,119,17055.0,17055.0,17045.0,17050.0,135,-31,17045,74,17050,74
2016-10-11 10:09:00,10:09:24,10:09:58,25537,25641,17045.0,72,17050.0,82,17045.0,17045.0,17040.0,17040.0,102,-58,17040,91,17045,26
2016-10-11 10:10:00,10:10:04,10:10:58,25650,25767,17040.0,98,17045.0,16,17040.0,17050.0,17040.0,17045.0,71,-21,17045,17,17050,89
2016-10-11 10:11:00,10:11:00,10:11:51,25776,25857,17045.0,47,17050.0,84,17050.0,17050.0,17045.0,17045.0,27,-13,17040,107,17045,99
2016-10-11 10:12:00,10:12:00,10:12:55,25863,26100,17040.0,107,17045.0,99,17040.0,17040.0,17040.0,17040.0,265,-129,17035,94,17040,107
2016-10-11 10:13:00,10:13:00,10:13:52,26111,26270,17035.0,79,17040.0,140,17035.0,17040.0,17035.0,17035.0,229,-225,17035,12,17040,95
2016-10-11 10:14:00,10:14:09,10:14:57,26293,26382,17035.0,35,17040.0,94,17035.0,17035.0,17035.0,17035.0,28,-28,17035,16,17040,97
2016-10-11 10:15:00,10:15:00,10:15:01,26389,26424,17035.0,26,17040.0,107,17035.0,17035.0,17035.0,17035.0,89,-83,17035,25,17040,100
2016-10-11 10:16:00,10:16:01,10:16:01,26481,26481,17035.0,52,17040.0,98,17040.0,17040.0,17040.0,17040.0,6,6,17035,49,17040,93
2016-10-11 10:17:00,10:17:00,10:17:58,26527,26713,17035.0,57,17040.0,88,17040.0,17040.0,17035.0,17040.0,239,-51,17035,45,17040,30
2016-10-11 10:18:00,10:18:00,10:18:24,26722,26797,17035.0,48,17040.0,76,17040.0,17040.0,17040.0,17040.0,84,84,17035,95,17040,18
2016-10-11 10:19:00,10:19:05,10:19:45,26838,26901,17035.0,98,17040.0,65,17040.0,17040.0,17035.0,17035.0,46,-34,17035,71,17040,103
2016-10-11 10:20:00,10:20:00,10:20:06,26921,26942,17035.0,79,17040.0,102,17040.0,17040.0,17035.0,17035.0,12,6,17035,79,17040,95
2016-10-11 10:21:00,10:21:01,10:21:50,27004,27047,17035.0,103,17040.0,87,17040.0,17040.0,17035.0,17040.0,16,10,17035,95,17040,88
2016-10-11 10:22:00,10:22:01,10:22:58,27053,27201,17035.0,92,17040.0,88,17040.0,17045.0,17040.0,17040.0,145,141,17040,43,17045,115
2016-10-11 10:23:00,10:23:21,10:23:46,27228,27258,17040.0,92,17045.0,63,17040.0,17045.0,17040.0,17045.0,14,-6,17040,75,17045,72
2016-10-11 10:24:00,10:24:01,10:24:52,27269,27410,17040.0,80,17045.0,69,17045.0,17045.0,17040.0,17045.0,129,-1,17040,79,17045,73
2016-10-11 10:25:00,10:25:01,10:25:56,27424,27529,17040.0,87,17045.0,17,17045.0,17050.0,17045.0,17045.0,61,15,17045,34,17050,102
2016-10-11 10:26:00,10:26:21,10:26:57,27553,27666,17045.0,51,17050.0,97,17045.0,17060.0,17045.0,17050.0,127,111,17050,121,17055,18
2016-10-11 10:27:00,10:27:02,10:27:35,27680,27785,17050.0,120,17055.0,42,17055.0,17060.0,17055.0,17055.0,87,9,17050,112,17055,11
2016-10-11 10:28:00,10:28:21,10:28:38,27830,27911,17050.0,111,17055.0,46,17050.0,17050.0,17050.0,17050.0,87,-49,17050,15,17055,88
2016-10-11 10:29:00,10:29:30,10:29:58,27967,27999,17050.0,87,17055.0,98,17050.0,17055.0,17050.0,17055.0,6,-4,17050,83,17055,88
2016-10-11 10:30:00,10:30:00,10:30:39,28001,28203,17050.0,86,17055.0,88,17050.0,17060.0,17050.0,17055.0,298,159,17055,36,17060,72
2016-10-11 10:31:00,10:31:08,10:31:21,28238,28273,17055.0,66,17060.0,65,17060.0,17060.0,17055.0,17055.0,51,13,17055,24,17060,97
2016-10-11 10:32:00,10:32:01,10:32:55,28299,28433,17055.0,58,17060.0,86,17060.0,17065.0,17055.0,17060.0,161,-25,17060,13,17065,94
2016-10-11 10:33:00,10:33:18,10:33:42,28453,28506,17060.0,96,17065.0,90,17060.0,17060.0,17060.0,17060.0,25,-25,17060,89,17065,81
2016-10-11 10:34:00,10:34:05,10:34:51,28511,28609,17060.0,91,17065.0,91,17065.0,17065.0,17060.0,17060.0,72,-22,17060,57,17065,67
2016-10-11 10:35:00,10:35:01,10:35:57,28619,28755,17060.0,53,17065.0,78,17060.0,17065.0,17055.0,17065.0,128,51,17065,22,17070,51
2016-10-11 10:36:00,10:36:04,10:36:58,28762,28814,17065.0,31,17070.0,51,17065.0,17070.0,17065.0,17070.0,32,16,17065,30,17070,66
2016-10-11 10:37:00,10:37:02,10:37:21,28818,28863,17065.0,32,17070.0,66,17070.0,17070.0,17060.0,17060.0,42,-36,17060,68,17065,8
2016-10-11 10:38:00,10:38:21,10:38:45,28904,28962,17060.0,79,17065.0,50,17060.0,17065.0,17060.0,17065.0,55,-53,17060,77,17065,87
2016-10-11 10:39:00,10:39:44,10:39:44,29000,29000,17060.0,82,17065.0,89,17060.0,17060.0,17060.0,17060.0,1,-1,17060,81,17070,69
2016-10-11 10:40:00,10:40:00,10:40:05,29002,29028,17060.0,81,17065.0,89,17065.0,17070.0,17065.0,17070.0,58,58,17065,51,17070,65
2016-10-11 10:41:00,10:41:02,10:41:40,29068,29100,17065.0,55,17070.0,68,17065.0,17070.0,17065.0,17065.0,15,5,17065,42,17070,66
2016-10-11 10:42:00,10:42:01,10:42:31,29113,29180,17065.0,45,17070.0,64,17070.0,17070.0,17060.0,17060.0,47,-25,17060,63,17065,8
2016-10-11 10:43:00,10:43:00,10:43:00,0,0,0.0,0,0.0,0,17060.0,17060.0,17060.0,17060.0,0,0,0,0,0,0
2016-10-11 10:44:00,10:44:04,10:44:06,29234,29262,17060.0,74,17065.0,69,17065.0,17065.0,17065.0,17065.0,43,37,17060,81,17070,67
2016-10-11 10:45:00,10:45:01,10:45:35,29308,29369,17065.0,32,17070.0,73,17070.0,17070.0,17065.0,17065.0,40,-24,17065,17,17070,65
2016-10-11 10:46:00,10:46:00,10:46:37,29383,29420,17065.0,33,17070.0,61,17065.0,17065.0,17065.0,17065.0,13,-13,17065,41,17070,60
2016-10-11 10:47:00,10:47:01,10:47:46,29437,29601,17065.0,23,17070.0,68,17065.0,17065.0,17060.0,17065.0,148,-45,17065,4,17070,64
2016-10-11 10:48:00,10:48:00,10:48:55,29609,29703,17065.0,8,17070.0,76,17065.0,17065.0,17060.0,17065.0,56,-34,17065,2,17070,81
2016-10-11 10:49:00,10:49:02,10:49:58,29711,29848,17065.0,3,17070.0,81,17065.0,17065.0,17050.0,17050.0,123,-119,17050,53,17055,63
2016-10-11 10:50:00,10:50:00,10:50:55,29851,29953,17050.0,53,17055.0,63,17050.0,17060.0,17050.0,17055.0,62,48,17055,40,17060,61
2016-10-11 10:51:00,10:51:10,10:51:54,29960,30010,17055.0,42,17060.0,63,17055.0,17055.0,17055.0,17055.0,49,-49,17055,35,17060,74
2016-10-11 10:52:00,10:52:00,10:52:52,30012,30083,17055.0,35,17060.0,73,17055.0,17055.0,17055.0,17055.0,45,-3,17055,124,17060,67
2016-10-11 10:53:00,10:53:11,10:53:58,30102,30138,17055.0,128,17060.0,66,17055.0,17060.0,17055.0,17055.0,5,-1,17055,124,17060,86
2016-10-11 10:54:00,10:54:00,10:54:40,30140,30187,17055.0,124,17060.0,83,17055.0,17060.0,17055.0,17055.0,124,-110,17050,73,17055,52
2016-10-11 10:55:00,10:55:11,10:55:37,30214,30250,17050.0,69,17055.0,85,17050.0,17050.0,17050.0,17050.0,53,-53,17045,65,17050,17
2016-10-11 10:56:00,10:56:35,10:56:35,30295,30315,17045.0,73,17050.0,46,17050.0,17050.0,17050.0,17050.0,26,26,17045,69,17050,34
2016-10-11 10:57:00,10:57:06,10:57:56,30339,30439,17045.0,70,17050.0,50,17050.0,17050.0,17045.0,17045.0,84,-70,17045,58,17050,63
2016-10-11 10:58:00,10:58:00,10:58:34,30444,30602,17045.0,59,17050.0,62,17045.0,17055.0,17045.0,17050.0,250,-18,17050,34,17055,76
2016-10-11 10:59:00,10:59:00,10:59:10,30626,30664,17050.0,44,17055.0,74,17050.0,17050.0,17050.0,17050.0,30,0,17045,73,17055,77
2016-10-11 11:00:00,11:00:05,11:00:15,30708,30742,17045.0,54,17050.0,59,17050.0,17050.0,17050.0,17050.0,48,20,17045,67,17050,40
2016-10-11 11:01:00,11:01:00,11:01:30,30793,30822,17045.0,62,17050.0,49,17045.0,17045.0,17045.0,17045.0,12,-12,17045,46,17050,61
2016-10-11 11:02:00,11:02:03,11:02:03,30845,30847,17045.0,44,17050.0,61,17050.0,17050.0,17050.0,17050.0,6,6,17045,39,17050,57
2016-10-11 11:03:00,11:03:02,11:03:51,30889,31016,17045.0,53,17050.0,59,17050.0,17050.0,17045.0,17045.0,97,-2,17040,65,17045,7
2016-10-11 11:04:00,11:04:00,11:04:37,31030,31113,17040.0,64,17045.0,29,17045.0,17050.0,17045.0,17050.0,48,32,17045,34,17050,59
2016-10-11 11:05:00,11:05:00,11:05:55,31138,31255,17045.0,14,17050.0,63,17045.0,17045.0,17040.0,17045.0,66,0,17040,67,17050,66
2016-10-11 11:06:00,11:06:05,11:06:39,31263,31301,17045.0,20,17050.0,63,17050.0,17050.0,17040.0,17040.0,70,-64,17040,39,17045,54
2016-10-11 11:07:00,11:07:42,11:07:55,31319,31369,17040.0,60,17045.0,45,17045.0,17045.0,17045.0,17045.0,51,21,17045,2,17050,64
2016-10-11 11:08:00,11:08:59,11:08:59,31420,31420,17045.0,32,17050.0,58,17045.0,17045.0,17045.0,17045.0,1,-1,17045,30,17050,52
2016-10-11 11:09:00,11:09:01,11:09:51,31422,31481,17045.0,30,17050.0,58,17050.0,17055.0,17050.0,17050.0,62,40,17045,103,17050,59
2016-10-11 11:10:00,11:10:00,11:10:00,0,0,0.0,0,0.0,0,17050.0,17050.0,17050.0,17050.0,0,0,0,0,0,0
2016-10-11 11:11:00,11:11:06,11:11:06,31531,31534,17045.0,94,17050.0,54,17050.0,17050.0,17050.0,17050.0,6,6,17045,100,17050,45
2016-10-11 11:12:00,11:12:02,11:12:45,31577,31631,17045.0,99,17050.0,44,17050.0,17050.0,17045.0,17045.0,77,-45,17045,53,17050,53
2016-10-11 11:13:00,11:13:23,11:13:47,31662,31713,17045.0,59,17050.0,51,17045.0,17050.0,17045.0,17050.0,83,-77,17045,48,17050,45
2016-10-11 11:14:00,11:14:27,11:14:58,31725,31742,17045.0,66,17050.0,45,17050.0,17050.0,17050.0,17050.0,4,4,17045,56,17050,52
2016-10-11 11:15:00,11:15:08,11:15:59,31751,31799,17045.0,52,17050.0,58,17050.0,17050.0,17045.0,17045.0,21,-1,17045,30,17050,74
2016-10-11 11:16:00,11:16:08,11:16:57,31803,31896,17045.0,28,17050.0,74,17045.0,17050.0,17045.0,17045.0,58,-50,17045,11,17050,75
2016-10-11 11:17:00,11:17:09,11:17:50,31910,32037,17045.0,43,17050.0,73,17045.0,17050.0,17045.0,17050.0,149,77,17050,2,17055,86
2016-10-11 11:18:00,11:18:05,11:18:31,32055,32102,17050.0,12,17055.0,85,17050.0,17055.0,17050.0,17055.0,57,25,17055,2,17060,109
2016-10-11 11:19:00,11:19:49,11:19:49,32140,32140,17050.0,54,17055.0,90,17055.0,17055.0,17055.0,17055.0,1,1,17050,50,17055,89
2016-10-11 11:20:00,11:20:03,11:20:56,32150,32279,17050.0,44,17055.0,90,17050.0,17055.0,17045.0,17045.0,129,-113,17040,66,17050,74
2016-10-11 11:21:00,11:21:02,11:21:59,32296,32406,17045.0,10,17050.0,72,17045.0,17045.0,17040.0,17040.0,142,-142,17040,37,17045,41
2016-10-11 11:22:00,11:22:11,11:22:52,32416,32434,17040.0,51,17045.0,34,17040.0,17045.0,17040.0,17045.0,12,-10,17040,50,17045,35
2016-10-11 11:23:00,11:23:06,11:23:59,32441,32543,17040.0,55,17045.0,28,17045.0,17045.0,17040.0,17040.0,97,-83,17040,6,17045,72
2016-10-11 11:24:00,11:24:00,11:24:59,32546,32682,17040.0,6,17045.0,72,17040.0,17040.0,17035.0,17035.0,148,-10,17035,73,17040,40
2016-10-11 11:25:00,11:25:00,11:25:00,32685,32686,17035.0,73,17040.0,40,17035.0,17035.0,17035.0,17035.0,2,-2,17035,71,17040,43
2016-10-11 11:26:00,11:26:06,11:26:48,32762,32846,17035.0,63,17040.0,60,17040.0,17040.0,17035.0,17040.0,100,-2,17035,62,17040,18
2016-10-11 11:27:00,11:27:10,11:27:54,32870,32976,17035.0,55,17040.0,69,17040.0,17040.0,17035.0,17040.0,105,33,17035,63,17045,64
2016-10-11 11:28:00,11:28:37,11:28:59,33015,33068,17035.0,64,17040.0,5,17040.0,17040.0,17040.0,17040.0,36,34,17035,51,17040,9
2016-10-11 11:29:00,11:29:00,11:29:47,33069,33130,17035.0,54,17040.0,8,17035.0,17040.0,17035.0,17040.0,28,24,17035,99,17040,59
2016-10-11 11:30:00,11:30:00,11:30:59,33140,33315,17035.0,99,17040.0,56,17035.0,17040.0,17035.0,17035.0,139,-15,17035,88,17040,85
2016-10-11 11:31:00,11:31:03,11:31:56,33322,33553,17035.0,82,17040.0,81,17035.0,17035.0,17030.0,17035.0,442,-126,17035,37,17040,77
2016-10-11 11:32:00,11:32:08,11:32:59,33572,33640,17035.0,21,17040.0,93,17035.0,17035.0,17035.0,17035.0,99,-13,17035,39,17040,80
2016-10-11 11:33:00,11:33:00,11:33:47,33644,33727,17035.0,41,17040.0,80,17035.0,17040.0,17035.0,17040.0,67,-45,17035,80,17040,66
2016-10-11 11:34:00,11:34:00,11:34:34,33748,33799,17035.0,74,17040.0,65,17035.0,17035.0,17030.0,17030.0,45,-45,17030,54,17035,29
2016-10-11 11:35:00,11:35:40,11:35:59,33833,33867,17030.0,107,17035.0,35,17035.0,17035.0,17035.0,17035.0,37,33,17035,62,17040,64
2016-10-11 11:36:00,11:36:00,11:36:46,33869,33911,17035.0,62,17040.0,61,17035.0,17035.0,17030.0,17030.0,15,-11,17030,76,17035,61
2016-10-11 11:37:00,11:37:00,11:37:21,33929,33991,17030.0,98,17035.0,42,17030.0,17035.0,17030.0,17035.0,53,29,17035,41,17040,76
2016-10-11 11:38:00,11:38:00,11:38:38,34026,34184,17035.0,60,17040.0,93,17035.0,17035.0,17015.0,17020.0,271,-271,17020,37,17025,41
2016-10-11 11:39:00,11:39:26,11:39:56,34244,34360,17020.0,75,17025.0,42,17025.0,17025.0,17025.0,17025.0,145,76,17020,72,17025,15
2016-10-11 11:40:00,11:40:17,11:40:57,34384,34727,17020.0,69,17025.0,49,17020.0,17020.0,17000.0,17005.0,588,-352,17000,82,17010,97
2016-10-11 11:41:00,11:41:05,11:41:55,34745,34975,17000.0,76,17005.0,58,17005.0,17005.0,17000.0,17005.0,379,5,17005,16,17010,70
2016-10-11 11:42:00,11:42:00,11:42:53,34988,35061,17005.0,42,17010.0,62,17005.0,17005.0,17000.0,17005.0,58,-52,17000,52,17005,45
2016-10-11 11:43:00,11:43:09,11:43:58,35084,35220,17000.0,46,17005.0,80,17005.0,17005.0,17005.0,17005.0,159,-73,17005,13,17010,80
2016-10-11 11:44:00,11:44:12,11:44:30,35230,35275,17005.0,39,17010.0,79,17005.0,17005.0,17005.0,17005.0,71,-71,17005,13,17010,80
2016-10-11 11:45:00,11:45:00,11:45:55,35301,35498,17005.0,21,17010.0,83,17005.0,17005.0,16995.0,17000.0,196,-78,17000,76,17005,35
2016-10-11 11:46:00,11:46:03,11:46:57,35518,35729,17000.0,31,17005.0,88,17000.0,17000.0,16990.0,16990.0,260,-242,16990,49,16995,54
2016-10-11 11:47:00,11:47:02,11:47:45,35739,35878,16990.0,60,16995.0,29,16990.0,16995.0,16990.0,16995.0,131,-52,16995,47,17000,63
2016-10-11 11:48:00,11:48:03,11:48:46,35900,35981,16995.0,50,17000.0,67,16995.0,17000.0,16995.0,16995.0,50,-48,16995,36,17000,68
2016-10-11 11:49:00,11:49:08,11:49:39,35994,36069,16995.0,35,17000.0,68,16995.0,17000.0,16995.0,16995.0,60,-58,16995,27,17000,85
2016-10-11 11:50:00,11:50:08,11:50:08,36109,36109,16995.0,28,17000.0,90,16995.0,16995.0,16995.0,16995.0,3,-3,16995,22,17000,91
2016-10-11 11:51:00,11:51:34,11:51:34,36232,36232,16995.0,75,17000.0,65,16995.0,16995.0,16995.0,16995.0,3,-3,16995,72,17000,66
2016-10-11 11:52:00,11:52:43,11:52:57,36269,36354,16995.0,79,17000.0,59,17000.0,17005.0,17000.0,17005.0,149,73,17005,21,17010,83
2016-10-11 11:53:00,11:53:29,11:53:48,36393,36539,17005.0,58,17010.0,91,17005.0,17015.0,17005.0,17010.0,249,99,17010,52,17015,73
2016-10-11 11:54:00,11:54:01,11:54:35,36548,36640,17010.0,67,17015.0,103,17015.0,17015.0,17005.0,17005.0,152,-150,17005,60,17010,111
2016-10-11 11:55:00,11:55:10,11:55:55,36671,36725,17005.0,77,17010.0,59,17010.0,17010.0,17010.0,17010.0,49,49,17005,93,17010,70
2016-10-11 11:56:00,11:56:12,11:56:56,36741,36863,17005.0,95,17010.0,71,17010.0,17015.0,17010.0,17015.0,146,146,17010,57,17015,49
2016-10-11 11:57:00,11:57:03,11:57:56,36870,37049,17010.0,59,17015.0,49,17015.0,17020.0,17015.0,17015.0,216,-1,17010,75,17015,10
2016-10-11 11:58:00,11:58:16,11:58:59,37063,37179,17010.0,71,17015.0,51,17010.0,17020.0,17010.0,17020.0,178,78,17015,59,17020,33
2016-10-11 11:59:00,11:59:00,11:59:58,37180,37243,17020.0,34,17025.0,80,17020.0,17020.0,17020.0,17020.0,5,3,17015,58,17020,53
2016-10-11 12:00:00,12:00:00,12:00:55,37246,37410,17015.0,52,17020.0,52,17015.0,17020.0,17010.0,17015.0,143,-67,17015,4,17020,56
2016-10-11 12:01:00,12:01:02,12:01:55,37420,37470,17015.0,36,17020.0,49,17015.0,17020.0,17015.0,17015.0,13,-9,17015,33,17020,50
2016-10-11 12:02:00,12:02:02,12:02:53,37473,37530,17015.0,33,17020.0,50,17015.0,17020.0,17015.0,17015.0,30,2,17015,80,17020,52
2016-10-11 12:03:00,12:03:03,12:03:57,37538,37587,17015.0,80,17020.0,61,17015.0,17015.0,17015.0,17015.0,16,-16,17015,82,17020,50
2016-10-11 12:04:00,12:04:14,12:04:57,37599,37710,17015.0,81,17020.0,54,17015.0,17020.0,17015.0,17020.0,119,93,17020,57,17025,70
2016-10-11 12:05:00,12:05:15,12:05:55,37720,37768,17020.0,60,17025.0,69,17020.0,17020.0,17020.0,17020.0,22,-22,17020,59,17025,73
2016-10-11 12:06:00,12:06:30,12:06:30,37788,37803,17020.0,51,17025.0,89,17020.0,17020.0,17020.0,17020.0,43,-43,17015,52,17020,38
2016-10-11 12:07:00,12:07:16,12:07:53,37863,37969,17015.0,65,17020.0,63,17015.0,17015.0,17015.0,17015.0,117,-97,17015,7,17020,85
2016-10-11 12:08:00,12:08:03,12:08:59,37978,38130,17015.0,5,17020.0,94,17015.0,17020.0,17015.0,17020.0,185,29,17015,80,17020,12
2016-10-11 12:09:00,12:09:00,12:09:39,38134,38202,17015.0,76,17020.0,12,17020.0,17025.0,17020.0,17020.0,37,-11,17020,17,17025,71
2016-10-11 12:10:00,12:10:03,12:10:32,38241,38338,17020.0,18,17025.0,74,17020.0,17030.0,17020.0,17025.0,118,38,17025,39,17030,59
2016-10-11 12:11:00,12:11:04,12:11:21,38364,38401,17025.0,43,17030.0,73,17025.0,17025.0,17025.0,17025.0,45,-45,17020,52,17025,67
2016-10-11 12:12:00,12:12:08,12:12:58,38448,38591,17020.0,59,17025.0,66,17025.0,17025.0,17020.0,17020.0,136,17,17020,34,17025,60
2016-10-11 12:13:00,12:13:35,12:13:59,38629,38681,17020.0,42,17025.0,54,17020.0,17020.0,17020.0,17020.0,44,-26,17015,65,17020,7
2016-10-11 12:14:00,12:14:04,12:14:32,38687,38733,17015.0,66,17020.0,13,17020.0,17025.0,17020.0,17020.0,29,9,17020,47,17025,52
2016-10-11 12:15:00,12:15:10,12:15:58,38763,38804,17020.0,47,17025.0,59,17020.0,17020.0,17020.0,17020.0,9,-9,17020,19,17025,82
2016-10-11 12:16:00,12:16:00,12:16:00,0,0,0.0,0,0.0,0,17020.0,17020.0,17020.0,17020.0,0,0,0,0,0,0
2016-10-11 12:17:00,12:17:24,12:17:53,38851,38866,17020.0,40,17025.0,74,17020.0,17020.0,17020.0,17020.0,2,-2,17020,31,17025,75
2016-10-11 12:18:00,12:18:22,12:18:50,38879,38912,17020.0,54,17025.0,70,17020.0,17020.0,17015.0,17015.0,14,-14,17015,39,17020,85
2016-10-11 12:19:00,12:19:15,12:19:41,38943,38967,17015.0,41,17020.0,83,17015.0,17015.0,17015.0,17015.0,32,-32,17015,23,17020,73
2016-10-11 12:20:00,12:20:00,12:20:45,38979,39012,17015.0,43,17020.0,78,17015.0,17015.0,17015.0,17015.0,15,-15,17015,76,17020,85
2016-10-11 12:21:00,12:21:25,12:21:44,39026,39054,17015.0,79,17020.0,88,17015.0,17015.0,17015.0,17015.0,31,-31,17015,14,17020,92
2016-10-11 12:22:00,12:22:11,12:22:11,39075,39080,17015.0,34,17020.0,86,17015.0,17015.0,17015.0,17015.0,10,-10,17015,31,17020,88
2016-10-11 12:23:00,12:23:09,12:23:41,39108,39153,17015.0,66,17020.0,89,17015.0,17015.0,17010.0,17010.0,64,-54,17010,88,17015,50
2016-10-11 12:24:00,12:24:06,12:24:40,39166,39216,17010.0,132,17015.0,81,17010.0,17015.0,17010.0,17015.0,112,106,17015,9,17020,74
2016-10-11 12:25:00,12:25:05,12:25:58,39243,39434,17015.0,35,17020.0,86,17015.0,17025.0,17015.0,17020.0,283,-63,17015,59,17025,83
2016-10-11 12:26:00,12:26:00,12:26:28,39439,39513,17015.0,60,17020.0,5,17020.0,17020.0,17015.0,17015.0,65,-38,17015,11,17020,65
2016-10-11 12:27:00,12:27:00,12:27:34,39534,39609,17015.0,61,17020.0,57,17015.0,17025.0,17015.0,17025.0,71,13,17020,28,17025,84
2016-10-11 12:28:00,12:28:25,12:28:57,39630,39644,17020.0,59,17025.0,54,17020.0,17025.0,17020.0,17020.0,10,-8,17020,47,17025,52
2016-10-11 12:29:00,12:29:51,12:29:52,39661,39664,17020.0,60,17025.0,54,17020.0,17020.0,17020.0,17020.0,4,-4,17020,65,17025,54
2016-10-11 12:30:00,12:30:18,12:30:38,39687,39763,17020.0,65,17025.0,68,17025.0,17030.0,17025.0,17030.0,89,85,17025,46,17030,30
2016-10-11 12:31:00,12:31:05,12:31:05,39783,39783,17025.0,40,17030.0,53,17030.0,17030.0,17030.0,17030.0,1,1,17025,41,17030,54
2016-10-11 12:32:00,12:32:14,12:32:25,39834,39861,17025.0,43,17030.0,53,17025.0,17025.0,17020.0,17020.0,20,-20,17020,48,17025,47
2016-10-11 12:33:00,12:33:32,12:33:55,39903,39982,17020.0,38,17025.0,69,17020.0,17025.0,17020.0,17025.0,60,36,17020,40,17025,42
2016-10-11 12:34:00,12:34:00,12:34:02,39992,40030,17020.0,49,17025.0,42,17020.0,17020.0,17020.0,17020.0,56,-20,17020,6,17025,67
2016-10-11 12:35:00,12:35:29,12:35:30,40099,40114,17020.0,51,17025.0,49,17025.0,17025.0,17025.0,17025.0,28,28,17020,61,17025,11
2016-10-11 12:36:00,12:36:00,12:36:00,0,0,0.0,0,0.0,0,17025.0,17025.0,17025.0,17025.0,0,0,0,0,0,0
2016-10-11 12:37:00,12:37:01,12:37:59,40186,40221,17020.0,55,17025.0,49,17020.0,17020.0,17020.0,17020.0,3,-3,17020,66,17025,57
2016-10-11 12:38:00,12:38:12,12:38:56,40230,40359,17020.0,69,17025.0,40,17025.0,17025.0,17020.0,17020.0,116,94,17020,71,17025,21
2016-10-11 12:39:00,12:39:05,12:39:54,40368,40408,17020.0,71,17025.0,28,17020.0,17025.0,17020.0,17025.0,19,7,17025,39,17030,55
2016-10-11 12:40:00,12:40:00,12:40:00,0,0,0.0,0,0.0,0,17025.0,17025.0,17025.0,17025.0,0,0,0,0,0,0
2016-10-11 12:41:00,12:41:20,12:41:58,40440,40581,17025.0,48,17030.0,61,17025.0,17030.0,17025.0,17030.0,177,53,17030,2,17035,68
2016-10-11 12:42:00,12:42:46,12:42:58,40635,40732,17030.0,69,17035.0,48,17035.0,17035.0,17035.0,17035.0,169,17,17035,7,17040,63
2016-10-11 12:43:00,12:43:04,12:43:46,40744,40829,17035.0,8,17040.0,64,17035.0,17035.0,17035.0,17035.0,50,-46,17030,58,17035,4
2016-10-11 12:44:00,12:44:02,12:44:41,40849,40890,17030.0,59,17035.0,41,17030.0,17030.0,17030.0,17030.0,5,-5,17030,64,17035,52
2016-10-11 12:45:00,12:45:00,12:45:58,40912,40977,17030.0,39,17035.0,52,17030.0,17030.0,17025.0,17030.0,46,-24,17030,33,17035,72
2016-10-11 12:46:00,12:46:04,12:46:35,40986,41062,17030.0,58,17035.0,62,17030.0,17030.0,17030.0,17030.0,95,-1,17025,84,17030,2
2016-10-11 12:47:00,12:47:02,12:47:15,41079,41121,17025.0,84,17030.0,25,17030.0,17030.0,17025.0,17030.0,41,8,17025,104,17035,67
2016-10-11 12:48:00,12:48:30,12:48:42,41168,41174,17030.0,64,17035.0,30,17030.0,17035.0,17030.0,17035.0,4,-2,17030,61,17035,32
2016-10-11 12:49:00,12:49:08,12:49:56,41200,41234,17030.0,58,17035.0,28,17030.0,17035.0,17030.0,17030.0,6,-2,17030,63,17035,33
2016-10-11 12:50:00,12:50:54,12:50:54,41259,41260,17030.0,68,17035.0,44,17030.0,17030.0,17030.0,17030.0,3,-3,17030,65,17035,40
2016-10-11 12:51:00,12:51:15,12:51:16,41272,41277,17030.0,64,17035.0,48,17030.0,17030.0,17030.0,17030.0,4,-4,17030,28,17035,61
2016-10-11 12:52:00,12:52:20,12:52:20,41306,41306,17030.0,56,17035.0,77,17030.0,17030.0,17030.0,17030.0,2,-2,17030,54,17035,73
2016-10-11 12:53:00,12:53:17,12:53:46,41326,41340,17030.0,57,17035.0,79,17030.0,17035.0,17030.0,17030.0,7,-3,17030,55,17035,64
2016-10-11 12:54:00,12:54:49,12:54:50,41350,41355,17030.0,55,17035.0,60,17030.0,17030.0,17030.0,17030.0,7,-7,17030,25,17035,82
2016-10-11 12:55:00,12:55:12,12:55:35,41373,41401,17030.0,45,17035.0,84,17030.0,17030.0,17030.0,17030.0,29,-29,17030,18,17035,82
2016-10-11 12:56:00,12:56:17,12:56:35,41428,41476,17030.0,24,17035.0,82,17030.0,17035.0,17030.0,17035.0,43,1,17030,31,17035,78
2016-10-11 12:57:00,12:57:36,12:57:36,41501,41501,17030.0,58,17035.0,72,17030.0,17030.0,17030.0,17030.0,1,-1,17030,57,17035,73
2016-10-11 12:58:00,12:58:04,12:58:18,41514,41525,17030.0,50,17035.0,74,17030.0,17030.0,17030.0,17030.0,4,-4,17030,63,17035,52
2016-10-11 12:59:00,12:59:02,12:59:59,41553,41600,17030.0,54,17035.0,64,17030.0,17030.0,17030.0,17030.0,4,-4,17030,64,17035,55
2016-10-11 13:00:00,13:00:00,13:00:53,41601,41769,17030.0,61,17035.0,54,17035.0,17040.0,17025.0,17025.0,290,-106,17020,70,17025,42
2016-10-11 13:01:00,13:01:05,13:01:58,41794,42023,17020.0,54,17025.0,76,17020.0,17020.0,17010.0,17015.0,415,-101,17015,25,17020,71
2016-10-11 13:02:00,13:02:26,13:02:30,42056,42065,17010.0,63,17015.0,20,17015.0,17015.0,17015.0,17015.0,17,17,17015,38,17020,74
2016-10-11 13:03:00,13:03:03,13:03:58,42107,42220,17015.0,62,17020.0,60,17020.0,17020.0,17020.0,17020.0,99,67,17015,73,17025,84
2016-10-11 13:04:00,13:04:00,13:04:00,0,0,0.0,0,0.0,0,17020.0,17020.0,17020.0,17020.0,0,0,0,0,0,0
2016-10-11 13:05:00,13:05:58,13:05:58,42307,42308,17020.0,50,17025.0,60,17020.0,17020.0,17020.0,17020.0,5,-5,17020,43,17025,62
2016-10-11 13:06:00,13:06:01,13:06:58,42315,42367,17020.0,47,17025.0,60,17020.0,17020.0,17020.0,17020.0,18,-18,17020,51,17025,61
2016-10-11 13:07:00,13:07:08,13:07:59,42371,42453,17020.0,51,17025.0,63,17020.0,17025.0,17020.0,17025.0,88,0,17025,57,17030,61
2016-10-11 13:08:00,13:08:01,13:08:50,42458,42619,17025.0,21,17030.0,89,17025.0,17035.0,17025.0,17030.0,185,46,17030,84,17035,65
2016-10-11 13:09:00,13:09:04,13:09:57,42633,42698,17030.0,88,17035.0,60,17035.0,17035.0,17030.0,17035.0,52,22,17035,35,17040,59
2016-10-11 13:10:00,13:10:01,13:10:55,42704,42811,17035.0,36,17040.0,63,17035.0,17035.0,17025.0,17025.0,145,-131,17025,22,17030,95
2016-10-11 13:11:00,13:11:02,13:11:52,42824,42885,17025.0,50,17030.0,76,17025.0,17025.0,17020.0,17020.0,26,-26,17020,80,17025,69
2016-10-11 13:12:00,13:12:03,13:12:54,42891,42930,17020.0,82,17025.0,78,17020.0,17020.0,17020.0,17020.0,21,-21,17020,71,17025,92
2016-10-11 13:13:00,13:13:00,13:13:55,42932,42971,17020.0,71,17025.0,101,17020.0,17020.0,17020.0,17020.0,23,-23,17020,50,17025,97
2016-10-11 13:14:00,13:14:05,13:14:56,42977,43027,17020.0,50,17025.0,98,17020.0,17020.0,17020.0,17020.0,19,-19,17020,39,17020,28
2016-10-11 13:15:00,13:15:02,13:15:56,43030,43149,17020.0,35,17025.0,95,17020.0,17020.0,17010.0,17010.0,83,-13,17010,90,17015,72
2016-10-11 13:16:00,13:16:02,13:16:49,43155,43240,17010.0,87,17015.0,73,17010.0,17015.0,17010.0,17010.0,46,-4,17010,78,17015,66
2016-10-11 13:17:00,13:17:18,13:17:53,43259,43400,17010.0,83,17015.0,61,17010.0,17020.0,17010.0,17020.0,194,190,17015,57,17020,34
2016-10-11 13:18:00,13:18:00,13:18:52,43417,43541,17015.0,24,17020.0,65,17015.0,17015.0,17015.0,17015.0,118,-37,17015,41,17020,64
2016-10-11 13:19:00,13:19:02,13:19:54,43547,43639,17015.0,41,17020.0,65,17015.0,17020.0,17015.0,17015.0,42,-34,17015,57,17020,36
2016-10-11 13:20:00,13:20:00,13:20:52,43643,43878,17015.0,57,17020.0,33,17020.0,17025.0,17020.0,17020.0,237,30,17020,30,17025,63
2016-10-11 13:21:00,13:21:04,13:21:54,43897,43982,17020.0,17,17025.0,71,17020.0,17020.0,17020.0,17020.0,19,-19,17020,13,17025,73
2016-10-11 13:22:00,13:22:13,13:22:55,43997,44136,17020.0,15,17025.0,76,17020.0,17020.0,17015.0,17015.0,218,-26,17010,94,17020,75
2016-10-11 13:23:00,13:23:03,13:23:56,44146,44290,17010.0,86,17015.0,20,17015.0,17015.0,17010.0,17015.0,190,36,17010,86,17015,11
2016-10-11 13:24:00,13:24:28,13:24:58,44307,44345,17010.0,86,17015.0,65,17010.0,17010.0,17010.0,17010.0,38,-38,17010,43,17015,90
2016-10-11 13:25:00,13:25:01,13:25:59,44348,44454,17010.0,43,17015.0,90,17010.0,17010.0,17010.0,17010.0,97,-97,17010,45,17015,42
2016-10-11 13:26:00,13:26:00,13:26:31,44455,44501,17010.0,47,17015.0,43,17010.0,17015.0,17010.0,17010.0,11,-9,17010,42,17015,49
2016-10-11 13:27:00,13:27:10,13:27:57,44540,44620,17010.0,49,17015.0,58,17010.0,17010.0,17010.0,17010.0,40,6,17010,7,17015,62
2016-10-11 13:28:00,13:28:03,13:28:13,44633,44663,17010.0,32,17015.0,62,17010.0,17015.0,17010.0,17015.0,22,20,17015,24,17020,88
2016-10-11 13:29:00,13:29:49,13:29:49,44714,44715,17015.0,64,17020.0,94,17015.0,17015.0,17015.0,17015.0,4,-4,17015,60,17020,95
2016-10-11 13:30:00,13:30:00,13:30:56,44722,44838,17015.0,61,17020.0,104,17015.0,17020.0,17015.0,17015.0,109,-67,17015,18,17020,103
2016-10-11 13:31:00,13:31:06,13:31:57,44857,44917,17015.0,29,17020.0,105,17015.0,17015.0,17015.0,17015.0,5,-5,17015,37,17020,89
2016-10-11 13:32:00,13:32:07,13:32:58,44927,44983,17015.0,27,17020.0,102,17015.0,17020.0,17015.0,17015.0,10,-6,17015,35,17020,101
2016-10-11 13:33:00,13:33:06,13:33:59,44992,45127,17015.0,26,17020.0,102,17015.0,17020.0,17015.0,17015.0,167,137,17015,71,17020,52
2016-10-11 13:34:00,13:34:20,13:34:48,45139,45158,17015.0,67,17020.0,41,17015.0,17020.0,17015.0,17020.0,4,-2,17015,52,17020,55
2016-10-11 13:35:00,13:35:00,13:35:31,45172,45210,17015.0,52,17020.0,56,17015.0,17015.0,17015.0,17015.0,3,-3,17015,54,17020,66
2016-10-11 13:36:00,13:36:02,13:36:44,45229,45247,17015.0,58,17020.0,56,17015.0,17020.0,17015.0,17020.0,6,-4,17015,57,17020,58
2016-10-11 13:37:00,13:37:02,13:37:57,45266,45313,17015.0,58,17020.0,58,17015.0,17020.0,17015.0,17015.0,24,-8,17015,40,17020,62
2016-10-11 13:38:00,13:38:23,13:38:55,45348,45405,17015.0,37,17020.0,83,17015.0,17020.0,17015.0,17015.0,29,-21,17015,17,17020,110
2016-10-11 13:39:00,13:39:14,13:39:45,45422,45484,17015.0,33,17020.0,93,17015.0,17015.0,17010.0,17010.0,39,-39,17010,45,17015,92
2016-10-11 13:40:00,13:40:05,13:40:59,45507,45598,17010.0,62,17015.0,70,17010.0,17015.0,17010.0,17010.0,52,-30,17010,4,17010,14
2016-10-11 13:41:00,13:41:00,13:41:55,45599,45737,17005.0,99,17010.0,21,17010.0,17015.0,17010.0,17015.0,109,35,17015,50,17020,61
2016-10-11 13:42:00,13:42:26,13:42:59,45759,45879,17015.0,48,17020.0,57,17015.0,17025.0,17015.0,17025.0,128,96,17025,23,17030,65
2016-10-11 13:43:00,13:43:04,13:43:58,45890,46139,17025.0,33,17030.0,60,17030.0,17035.0,17025.0,17025.0,279,-41,17025,34,17030,89
2016-10-11 13:44:00,13:44:09,13:44:59,46157,46283,17025.0,54,17030.0,88,17025.0,17025.0,17020.0,17020.0,72,-34,17020,67,17025,40
2016-10-11 13:45:00,13:45:02,13:45:47,46287,46411,17020.0,67,17025.0,42,17025.0,17030.0,17020.0,17030.0,126,28,17025,32,17030,83
2016-10-11 13:46:00,13:46:00,13:46:58,46428,46537,17025.0,37,17030.0,84,17025.0,17025.0,17025.0,17025.0,67,-59,17025,17,17030,99
2016-10-11 13:47:00,13:47:09,13:47:47,46549,46669,17025.0,11,17030.0,105,17025.0,17025.0,17020.0,17020.0,101,-17,17020,68,17025,32
2016-10-11 13:48:00,13:48:01,13:48:58,46681,46775,17020.0,80,17025.0,56,17020.0,17025.0,17020.0,17020.0,88,74,17020,64,17025,64
2016-10-11 13:49:00,13:49:00,13:49:53,46781,46868,17020.0,52,17025.0,84,17025.0,17025.0,17020.0,17020.0,37,-1,17020,77,17025,74
2016-10-11 13:50:00,13:50:01,13:50:57,46881,47116,17020.0,75,17025.0,68,17020.0,17020.0,17010.0,17010.0,285,-221,17010,51,17015,75
2016-10-11 13:51:00,13:51:29,13:51:57,47134,47191,17010.0,62,17015.0,96,17010.0,17015.0,17010.0,17010.0,33,-17,17010,85,17015,77
2016-10-11 13:52:00,13:52:04,13:52:55,47202,47302,17010.0,79,17015.0,88,17010.0,17015.0,17010.0,17010.0,39,13,17010,96,17015,83
2016-10-11 13:53:00,13:53:01,13:53:58,47308,47472,17010.0,97,17015.0,92,17010.0,17020.0,17010.0,17020.0,169,97,17015,44,17020,96
2016-10-11 13:54:00,13:54:02,13:54:58,47478,47637,17015.0,49,17020.0,103,17015.0,17020.0,17010.0,17010.0,188,-94,17005,94,17010,3
2016-10-11 13:55:00,13:55:00,13:55:57,47641,47921,17005.0,94,17010.0,5,17010.0,17015.0,17010.0,17010.0,471,15,17010,58,17015,74
2016-10-11 13:56:00,13:56:07,13:56:58,47940,48017,17010.0,86,17015.0,50,17010.0,17015.0,17010.0,17010.0,21,1,17010,79,17015,58
2016-10-11 13:57:00,13:57:00,13:57:58,48022,48186,17010.0,71,17015.0,72,17015.0,17020.0,17010.0,17015.0,145,101,17010,83,17015,86
2016-10-11 13:58:00,13:58:15,13:58:59,48208,48393,17010.0,64,17015.0,106,17015.0,17015.0,17010.0,17015.0,283,-81,17010,102,17015,42
2016-10-11 13:59:00,13:59:00,13:59:58,48396,48855,17010.0,102,17015.0,42,17015.0,17030.0,17015.0,17025.0,661,165,17020,198,17025,107
2016-10-11 14:00:00,14:00:00,14:00:56,48860,49357,17020.0,204,17025.0,111,17020.0,17035.0,17020.0,17030.0,882,258,17025,89,17030,102
2016-10-11 14:01:00,14:01:00,14:01:56,49367,49705,17025.0,92,17030.0,102,17030.0,17035.0,17020.0,17030.0,412,148,17030,16,17035,161
2016-10-11 14:02:00,14:02:00,14:02:51,49716,49957,17030.0,73,17035.0,170,17035.0,17035.0,17020.0,17025.0,465,-313,17020,118,17025,73
2016-10-11 14:03:00,14:03:00,14:03:59,49969,50178,17020.0,119,17025.0,59,17025.0,17030.0,17020.0,17025.0,237,-19,17020,113,17025,15
2016-10-11 14:04:00,14:04:00,14:04:58,50182,50303,17020.0,113,17025.0,19,17025.0,17030.0,17020.0,17030.0,130,24,17025,52,17030,165
2016-10-11 14:05:00,14:05:01,14:05:52,50312,50410,17025.0,72,17030.0,151,17025.0,17030.0,17025.0,17025.0,79,5,17025,68,17030,92
2016-10-11 14:06:00,14:06:01,14:06:53,50416,50481,17025.0,102,17030.0,95,17025.0,17030.0,17025.0,17025.0,29,-27,17025,121,17030,136
2016-10-11 14:07:00,14:07:06,14:07:59,50495,50584,17025.0,139,17030.0,137,17025.0,17030.0,17025.0,17025.0,156,-154,17025,46,17030,195
2016-10-11 14:08:00,14:08:02,14:08:59,50590,50770,17025.0,77,17030.0,195,17025.0,17030.0,17025.0,17030.0,310,66,17030,93,17035,181
