,ST,ET,sidx,eidx,bB,bBS,bA,bAS,O,H,L,C,V,OF,eB,eBS,eA,eAS
2016-05-27 08:00:00,08:00:00,08:00:59,2072,2636,16850.0,4,16855.0,12,16855.0,16855.0,16815.0,16825.0,772,-163,16825,8,16830,7
2016-05-27 08:01:00,08:01:01,08:01:59,2642,3157,16825.0,9,16830.0,12,16825.0,16830.0,16795.0,16810.0,591,-71,16805,5,16805,7
2016-05-27 08:02:00,08:02:00,08:02:58,3159,3428,16805.0,5,16810.0,26,16805.0,16815.0,16800.0,16805.0,231,65,16800,25,16805,4
2016-05-27 08:03:00,08:03:01,08:03:57,3438,3781,16800.0,25,16805.0,24,16805.0,16810.0,16795.0,16810.0,329,-23,16805,12,16810,35
2016-05-27 08:04:00,08:04:07,08:04:56,3804,3947,16805.0,15,16810.0,45,16810.0,16820.0,16810.0,16820.0,109,79,16815,18,16820,20
2016-05-27 08:05:00,08:05:02,08:05:59,3954,4314,16815.0,22,16820.0,11,16820.0,16840.0,16820.0,16835.0,355,-27,16835,2,16840,29
2016-05-27 08:06:00,08:06:00,08:06:53,4318,4583,16835.0,1,16840.0,29,16835.0,16840.0,16815.0,16830.0,193,-27,16830,2,16835,25
2016-05-27 08:07:00,08:07:03,08:07:45,4598,4754,16830.0,12,16835.0,25,16830.0,16840.0,16830.0,16835.0,161,103,16835,50,16840,13
2016-05-27 08:08:00,08:08:04,08:08:57,4774,5110,16835.0,56,16840.0,24,16840.0,16845.0,16825.0,16825.0,381,-57,16825,6,16830,29
2016-05-27 08:09:00,08:09:03,08:09:58,5121,5360,16825.0,9,16830.0,34,16825.0,16835.0,16820.0,16820.0,199,-12,16820,24,16825,32
2016-05-27 08:10:00,08:10:04,08:10:51,5367,5578,16820.0,27,16825.0,39,16820.0,16830.0,16820.0,16830.0,221,95,16825,21,16830,11
2016-05-27 08:11:00,08:11:03,08:11:52,5591,5762,16825.0,27,16830.0,8,16830.0,16835.0,16830.0,16835.0,129,-19,16835,12,16840,20
2016-05-27 08:12:00,08:12:09,08:12:52,5782,5912,16835.0,19,16840.0,31,16840.0,16840.0,16835.0,16840.0,117,1,16840,3,16845,30
2016-05-27 08:13:00,08:13:00,08:13:39,5929,6032,16840.0,20,16845.0,13,16845.0,16845.0,16840.0,16845.0,72,40,16845,27,16850,43
2016-05-27 08:14:00,08:14:01,08:14:38,6047,6197,16845.0,37,16850.0,30,16845.0,16845.0,16840.0,16845.0,141,-47,16845,20,16850,44
2016-05-27 08:15:00,08:15:07,08:15:50,6219,6323,16845.0,34,16850.0,51,16845.0,16850.0,16840.0,16840.0,94,-60,16840,31,16845,40
2016-05-27 08:16:00,08:16:05,08:16:53,6353,6506,16840.0,42,16845.0,38,16840.0,16850.0,16840.0,16845.0,159,57,16840,33,16845,1
2016-05-27 08:17:00,08:17:00,08:17:59,6522,6631,16840.0,13,16845.0,36,16840.0,16845.0,16840.0,16845.0,52,-30,16845,34,16850,95
2016-05-27 08:18:00,08:18:34,08:18:39,6661,6710,16845.0,34,16850.0,99,16845.0,16845.0,16845.0,16845.0,76,-10,16840,27,16850,101
2016-05-27 08:19:00,08:19:09,08:19:49,6747,6838,16840.0,25,16845.0,64,16845.0,16845.0,16835.0,16840.0,61,-23,16835,39,16840,26
2016-05-27 08:20:00,08:20:17,08:20:55,6859,6898,16835.0,41,16840.0,27,16835.0,16840.0,16835.0,16840.0,20,-2,16835,31,16840,40
2016-05-27 08:21:00,08:21:00,08:21:56,6906,7000,16835.0,20,16840.0,44,16835.0,16840.0,16835.0,16840.0,32,22,16835,38,16840,26
2016-05-27 08:22:00,08:22:03,08:22:41,7012,7112,16835.0,29,16840.0,28,16840.0,16840.0,16835.0,16835.0,50,-4,16830,35,16835,30
2016-05-27 08:23:00,08:23:04,08:23:51,7140,7362,16830.0,23,16835.0,40,16830.0,16840.0,16825.0,16840.0,191,-23,16835,42,16840,18
2016-05-27 08:24:00,08:24:12,08:24:59,7379,7537,16835.0,40,16840.0,28,16835.0,16840.0,16835.0,16840.0,164,-2,16840,18,16845,40
2016-05-27 08:25:00,08:25:03,08:25:43,7545,7943,16840.0,25,16845.0,38,16845.0,16865.0,16845.0,16865.0,565,357,16865,19,16865,3
2016-05-27 08:26:00,08:26:03,08:26:54,7975,8190,16865.0,17,16870.0,29,16865.0,16870.0,16860.0,16860.0,213,-45,16860,12,16865,29
2016-05-27 08:27:00,08:27:30,08:27:47,8239,8272,16860.0,21,16865.0,29,16860.0,16860.0,16860.0,16860.0,24,-4,16860,35,16865,30
2016-05-27 08:28:00,08:28:09,08:28:51,8296,8431,16860.0,39,16865.0,22,16865.0,16875.0,16865.0,16875.0,158,78,16870,36,16875,11
2016-05-27 08:29:00,08:29:03,08:29:52,8439,8620,16870.0,36,16875.0,12,16875.0,16875.0,16865.0,16865.0,147,27,16865,13,16870,29
2016-05-27 08:30:00,08:30:03,08:30:55,8640,8827,16865.0,29,16870.0,21,16870.0,16875.0,16865.0,16875.0,185,-21,16870,26,16875,6
2016-05-27 08:31:00,08:31:11,08:31:40,8851,8938,16870.0,30,16875.0,21,16875.0,16875.0,16875.0,16875.0,53,21,16875,19,16880,44
2016-05-27 08:32:00,08:32:00,08:32:58,8962,9144,16875.0,11,16880.0,42,16880.0,16880.0,16870.0,16875.0,193,55,16870,44,16875,9
2016-05-27 08:33:00,08:33:02,08:33:58,9154,9368,16875.0,8,16880.0,44,16875.0,16880.0,16860.0,16860.0,309,-23,16860,9,16865,43
2016-05-27 08:34:00,08:34:09,08:34:38,9382,9401,16860.0,20,16865.0,38,16860.0,16860.0,16860.0,16860.0,5,-5,16860,22,16865,35
2016-05-27 08:35:00,08:35:35,08:35:38,9439,9458,16860.0,54,16865.0,40,16865.0,16865.0,16865.0,16865.0,27,-7,16860,30,16865,17
2016-05-27 08:36:00,08:36:25,08:36:58,9491,9638,16860.0,69,16865.0,35,16860.0,16870.0,16860.0,16865.0,216,28,16860,44,16865,1
2016-05-27 08:37:00,08:37:00,08:37:58,9645,9778,16860.0,45,16865.0,12,16865.0,16870.0,16865.0,16865.0,96,0,16865,9,16870,33
2016-05-27 08:38:00,08:38:19,08:38:42,9806,9865,16865.0,22,16870.0,20,16870.0,16870.0,16870.0,16870.0,57,-31,16865,36,16875,35
2016-05-27 08:39:00,08:39:19,08:39:54,9898,9927,16870.0,26,16875.0,22,16870.0,16870.0,16870.0,16870.0,32,-2,16870,9,16875,36
2016-05-27 08:40:00,08:40:11,08:40:49,9954,10023,16870.0,35,16875.0,21,16875.0,16880.0,16875.0,16875.0,91,-33,16870,33,16875,7
2016-05-27 08:41:00,08:41:34,08:41:53,10053,10121,16870.0,43,16875.0,17,16875.0,16875.0,16870.0,16870.0,79,-43,16870,23,16875,24
2016-05-27 08:42:00,08:42:14,08:42:55,10143,10232,16870.0,36,16875.0,22,16870.0,16875.0,16870.0,16875.0,86,2,16870,25,16875,11
2016-05-27 08:43:00,08:43:05,08:43:57,10246,10337,16870.0,24,16875.0,17,16870.0,16875.0,16870.0,16875.0,48,-26,16875,25,16880,38
2016-05-27 08:44:00,08:44:02,08:44:31,10342,10406,16875.0,15,16880.0,40,16875.0,16875.0,16870.0,16875.0,50,12,16870,69,16875,4
2016-05-27 08:45:00,08:45:16,08:45:32,10448,10486,16870.0,70,16875.0,10,16875.0,16875.0,16875.0,16875.0,23,0,16870,76,16875,21
2016-05-27 08:46:00,08:46:01,08:46:58,10519,10648,16870.0,57,16875.0,24,16870.0,16875.0,16870.0,16875.0,91,-41,16870,53,16875,7
2016-05-27 08:47:00,08:47:28,08:47:41,10674,10753,16870.0,34,16875.0,30,16875.0,16880.0,16875.0,16875.0,110,66,16870,30,16875,13
2016-05-27 08:48:00,08:48:09,08:48:44,10780,10844,16870.0,19,16875.0,26,16870.0,16870.0,16865.0,16865.0,33,-31,16865,29,16870,31
2016-05-27 08:49:00,08:49:24,08:49:28,10863,10902,16865.0,36,16870.0,23,16870.0,16870.0,16870.0,16870.0,46,32,16870,7,16875,32
2016-05-27 08:50:00,08:50:18,08:50:25,10943,10949,16870.0,23,16875.0,28,16870.0,16870.0,16870.0,16870.0,2,-2,16870,20,16875,41
2016-05-27 08:51:00,08:51:03,08:51:27,10967,11044,16870.0,24,16875.0,46,16870.0,16870.0,16870.0,16870.0,81,-5,16865,41,16870,21
2016-05-27 08:52:00,08:52:10,08:52:59,11070,11250,16865.0,43,16870.0,36,16865.0,16870.0,16865.0,16865.0,154,44,16860,26,16870,35
2016-05-27 08:53:00,08:53:00,08:53:56,11251,11382,16860.0,27,16865.0,3,16865.0,16865.0,16865.0,16865.0,75,30,16860,29,16870,32
2016-05-27 08:54:00,08:54:44,08:54:53,11413,11457,16860.0,19,16865.0,36,16860.0,16865.0,16855.0,16865.0,42,6,16860,33,16865,15
2016-05-27 08:55:00,08:55:08,08:55:49,11490,11578,16860.0,30,16865.0,26,16860.0,16865.0,16860.0,16865.0,61,11,16860,28,16865,16
2016-05-27 08:56:00,08:56:13,08:56:25,11604,11655,16860.0,29,16865.0,20,16865.0,16865.0,16865.0,16865.0,46,22,16860,30,16865,8
2016-05-27 08:57:00,08:57:29,08:57:56,11715,11739,16860.0,26,16865.0,21,16865.0,16865.0,16860.0,16865.0,14,8,16865,11,16870,30
2016-05-27 08:58:00,08:58:41,08:58:43,11770,11798,16865.0,24,16870.0,33,16865.0,16865.0,16865.0,16865.0,45,-24,16865,3,16870,35
2016-05-27 08:59:00,08:59:37,08:59:49,11846,11906,16865.0,24,16870.0,22,16870.0,16875.0,16870.0,16875.0,56,-14,16870,26,16875,21
2016-05-27 09:00:00,09:00:18,09:00:55,11942,12044,16870.0,41,16875.0,21,16875.0,16880.0,16875.0,16875.0,105,-1,16875,5,16880,31
2016-05-27 09:01:00,09:01:14,09:01:59,12069,12128,16875.0,32,16880.0,25,16875.0,16880.0,16875.0,16880.0,26,-22,16875,19,16880,35
2016-05-27 09:02:00,09:02:00,09:02:57,12134,12205,16875.0,12,16880.0,36,16875.0,16875.0,16870.0,16875.0,25,-1,16875,18,16880,33
2016-05-27 09:03:00,09:03:47,09:03:47,12246,12260,16875.0,25,16880.0,30,16875.0,16875.0,16875.0,16875.0,13,-13,16870,35,16880,40
2016-05-27 09:04:00,09:04:04,09:04:55,12282,12670,16875.0,21,16880.0,25,16880.0,16900.0,16880.0,16895.0,459,153,16890,54,16895,9
2016-05-27 09:05:00,09:05:03,09:05:43,12687,12754,16890.0,47,16895.0,34,16895.0,16900.0,16890.0,16895.0,33,27,16895,14,16900,35
2016-05-27 09:06:00,09:06:00,09:06:59,12768,13011,16895.0,22,16900.0,40,16895.0,16900.0,16895.0,16900.0,176,90,16895,25,16900,17
2016-05-27 09:07:00,09:07:02,09:07:56,13017,13150,16895.0,25,16900.0,24,16895.0,16895.0,16890.0,16890.0,146,-46,16885,41,16890,3
2016-05-27 09:08:00,09:08:15,09:08:54,13175,13242,16890.0,35,16895.0,40,16895.0,16895.0,16895.0,16895.0,52,38,16890,30,16895,24
2016-05-27 09:09:00,09:09:01,09:09:58,13247,13373,16890.0,28,16895.0,27,16895.0,16900.0,16895.0,16895.0,74,44,16895,14,16900,31
2016-05-27 09:10:00,09:10:24,09:10:57,13395,13486,16895.0,8,16900.0,29,16895.0,16905.0,16895.0,16900.0,119,-95,16895,33,16900,6
2016-05-27 09:11:00,09:11:03,09:11:32,13500,13547,16895.0,29,16900.0,18,16900.0,16900.0,16895.0,16895.0,84,24,16890,27,16895,25
2016-05-27 09:12:00,09:12:01,09:12:53,13574,13666,16890.0,20,16895.0,31,16890.0,16895.0,16885.0,16885.0,44,-30,16880,27,16885,7
2016-05-27 09:13:00,09:13:35,09:13:58,13701,13733,16880.0,5,16885.0,33,16880.0,16885.0,16880.0,16880.0,12,-2,16880,7,16885,38
2016-05-27 09:14:00,09:14:11,09:14:30,13740,13797,16880.0,10,16885.0,36,16880.0,16885.0,16880.0,16880.0,57,-17,16880,39,16885,15
2016-05-27 09:15:00,09:15:01,09:15:52,13824,13982,16880.0,22,16885.0,33,16885.0,16885.0,16875.0,16875.0,113,5,16875,4,16880,24
2016-05-27 09:16:00,09:16:07,09:16:55,13996,14174,16875.0,9,16880.0,26,16880.0,16880.0,16860.0,16865.0,164,-54,16860,30,16865,10
2016-05-27 09:17:00,09:17:00,09:17:44,14177,14253,16860.0,30,16865.0,10,16865.0,16865.0,16865.0,16865.0,26,22,16860,30,16865,8
2016-05-27 09:18:00,09:18:12,09:18:59,14280,14345,16860.0,28,16865.0,12,16860.0,16865.0,16860.0,16865.0,27,-3,16860,37,16865,11
2016-05-27 09:19:00,09:19:01,09:19:57,14351,14482,16860.0,37,16865.0,8,16865.0,16870.0,16865.0,16870.0,73,31,16870,4,16875,35
2016-05-27 09:20:00,09:20:09,09:20:51,14506,14620,16870.0,5,16875.0,31,16870.0,16875.0,16870.0,16870.0,128,-75,16865,32,16870,8
2016-05-27 09:21:00,09:21:01,09:21:33,14631,14708,16865.0,13,16870.0,37,16865.0,16870.0,16865.0,16865.0,54,22,16865,5,16870,32
2016-05-27 09:22:00,09:22:38,09:22:46,14762,14802,16865.0,15,16870.0,36,16865.0,16865.0,16860.0,16860.0,48,-18,16855,31,16865,36
2016-05-27 09:23:00,09:23:04,09:23:53,14832,14971,16855.0,28,16860.0,19,16855.0,16860.0,16855.0,16855.0,95,-34,16850,55,16860,35
2016-05-27 09:24:00,09:24:04,09:24:45,14984,15056,16850.0,56,16855.0,21,16855.0,16855.0,16850.0,16850.0,60,10,16850,33,16855,25
2016-05-27 09:25:00,09:25:01,09:25:42,15066,15140,16850.0,40,16855.0,19,16855.0,16860.0,16850.0,16850.0,39,-7,16850,34,16855,19
2016-05-27 09:26:00,09:26:15,09:26:59,15184,15339,16850.0,20,16855.0,38,16850.0,16850.0,16835.0,16840.0,178,-145,16835,36,16840,14
2016-05-27 09:27:00,09:27:00,09:27:57,15344,15570,16835.0,37,16840.0,13,16840.0,16840.0,16830.0,16835.0,286,-139,16835,6,16840,28
2016-05-27 09:28:00,09:28:08,09:28:50,15591,15686,16835.0,32,16840.0,16,16840.0,16840.0,16835.0,16835.0,49,-11,16835,20,16840,30
2016-05-27 09:29:00,09:29:04,09:29:54,15705,15844,16835.0,11,16840.0,36,16835.0,16840.0,16835.0,16840.0,123,-21,16835,39,16845,38
2016-05-27 09:30:00,09:30:00,09:30:56,15853,16001,16835.0,33,16840.0,15,16840.0,16840.0,16835.0,16840.0,103,20,16840,12,16845,37
2016-05-27 09:31:00,09:31:27,09:31:59,16050,16140,16840.0,27,16845.0,16,16845.0,16845.0,16845.0,16845.0,62,-6,16840,24,16845,21
2016-05-27 09:32:00,09:32:06,09:32:55,16154,16309,16840.0,22,16845.0,23,16845.0,16845.0,16835.0,16840.0,110,45,16840,4,16845,34
2016-05-27 09:33:00,09:33:00,09:33:56,16318,16409,16840.0,16,16845.0,29,16840.0,16845.0,16840.0,16845.0,29,5,16840,59,16850,36
2016-05-27 09:34:00,09:34:03,09:34:57,16418,16480,16845.0,8,16850.0,36,16845.0,16845.0,16840.0,16845.0,31,11,16840,55,16845,10
2016-05-27 09:35:00,09:35:01,09:35:58,16485,16672,16840.0,55,16845.0,26,16840.0,16840.0,16830.0,16830.0,191,-38,16825,37,16835,34
2016-05-27 09:36:00,09:36:04,09:36:55,16686,16794,16825.0,25,16830.0,32,16830.0,16835.0,16830.0,16835.0,63,7,16830,30,16835,18
2016-05-27 09:37:00,09:37:20,09:37:45,16824,16885,16830.0,40,16835.0,18,16835.0,16835.0,16835.0,16835.0,64,8,16830,40,16835,2
2016-05-27 09:38:00,09:38:10,09:38:55,16909,16992,16830.0,30,16835.0,28,16835.0,16835.0,16830.0,16830.0,13,3,16830,26,16835,36
2016-05-27 09:39:00,09:39:43,09:39:57,17021,17086,16830.0,19,16835.0,49,16835.0,16835.0,16835.0,16835.0,71,53,16830,36,16835,14
2016-05-27 09:40:00,09:40:01,09:40:59,17094,17235,16830.0,35,16835.0,12,16835.0,16835.0,16830.0,16830.0,126,-10,16825,36,16830,10
2016-05-27 09:41:00,09:41:00,09:41:57,17242,17343,16830.0,5,16835.0,28,16830.0,16835.0,16830.0,16835.0,43,10,16830,35,16835,21
2016-05-27 09:42:00,09:42:02,09:42:27,17353,17486,16830.0,23,16835.0,33,16830.0,16845.0,16830.0,16845.0,126,37,16845,25,16850,35
2016-05-27 09:43:00,09:43:48,09:43:48,17547,17547,16845.0,25,16850.0,43,16845.0,16845.0,16845.0,16845.0,3,-3,16845,22,16850,42
2016-05-27 09:44:00,09:44:16,09:44:16,17578,17578,16845.0,34,16850.0,36,16850.0,16850.0,16850.0,16850.0,1,1,16845,39,16850,35
2016-05-27 09:45:00,09:45:10,09:45:59,17609,17733,16845.0,44,16850.0,40,16850.0,16860.0,16850.0,16850.0,133,73,16850,11,16855,48
2016-05-27 09:46:00,09:46:00,09:46:33,17740,17773,16850.0,7,16855.0,50,16850.0,16850.0,16850.0,16850.0,4,-4,16850,35,16855,21
2016-05-27 09:47:00,09:47:04,09:47:44,17779,17888,16850.0,32,16855.0,25,16855.0,16855.0,16850.0,16855.0,109,-51,16850,30,16855,6
2016-05-27 09:48:00,09:48:21,09:48:50,17918,17954,16850.0,21,16855.0,31,16850.0,16850.0,16845.0,16845.0,15,-15,16845,8,16850,41
2016-05-27 09:49:00,09:49:01,09:49:08,17960,17992,16845.0,19,16850.0,40,16845.0,16845.0,16840.0,16840.0,37,-11,16835,42,16845,33
2016-05-27 09:50:00,09:50:01,09:50:56,18062,18211,16835.0,9,16840.0,41,16835.0,16835.0,16830.0,16830.0,89,-9,16830,28,16835,13
2016-05-27 09:51:00,09:51:18,09:51:18,18233,18239,16830.0,32,16835.0,20,16835.0,16835.0,16835.0,16835.0,13,13,16835,30,16840,16
2016-05-27 09:52:00,09:52:18,09:52:39,18295,18349,16835.0,25,16840.0,23,16835.0,16840.0,16835.0,16840.0,31,29,16835,38,16840,8
2016-05-27 09:53:00,09:53:17,09:53:56,18381,18455,16835.0,36,16840.0,14,16835.0,16840.0,16835.0,16835.0,53,-31,16830,39,16835,14
2016-05-27 09:54:00,09:54:26,09:54:48,18496,18570,16830.0,12,16835.0,38,16830.0,16830.0,16825.0,16825.0,72,-41,16820,39,16830,30
2016-05-27 09:55:00,09:55:25,09:55:25,18592,18606,16825.0,31,16830.0,29,16830.0,16830.0,16830.0,16830.0,29,29,16830,25,16835,33
2016-05-27 09:56:00,09:56:01,09:56:37,18652,18700,16830.0,32,16835.0,32,16830.0,16835.0,16830.0,16835.0,50,48,16835,12,16840,32
2016-05-27 09:57:00,09:57:07,09:57:51,18731,18797,16835.0,11,16840.0,41,16835.0,16840.0,16835.0,16840.0,50,26,16840,14,16845,40
2016-05-27 09:58:00,09:58:30,09:58:59,18825,18866,16840.0,38,16845.0,26,16845.0,16845.0,16840.0,16845.0,43,11,16840,34,16850,37
2016-05-27 09:59:00,09:59:00,09:59:53,18872,19015,16840.0,33,16845.0,2,16845.0,16850.0,16840.0,16840.0,145,-117,16835,36,16845,33
2016-05-27 10:00:00,10:00:00,10:00:52,19023,19178,16840.0,4,16845.0,34,16845.0,16850.0,16840.0,16850.0,141,25,16845,33,16855,49
2016-05-27 10:01:00,10:01:20,10:01:31,19200,19231,16850.0,19,16855.0,39,16850.0,16850.0,16850.0,16850.0,18,-12,16845,25,16850,28
2016-05-27 10:02:00,10:02:03,10:02:56,19283,19387,16845.0,30,16850.0,18,16850.0,16850.0,16845.0,16850.0,50,22,16845,36,16855,47
2016-05-27 10:03:00,10:03:00,10:03:00,0,0,0.0,0,0.0,0,16850.0,16850.0,16850.0,16850.0,0,0,0,0,0,0
2016-05-27 10:04:00,10:04:06,10:04:53,19470,19517,16845.0,25,16850.0,36,16845.0,16845.0,16840.0,16845.0,28,-18,16845,12,16850,40
2016-05-27 10:05:00,10:05:35,10:05:51,19551,19587,16845.0,38,16850.0,18,16850.0,16850.0,16850.0,16850.0,32,6,16845,33,16850,2
2016-05-27 10:06:00,10:06:04,10:06:58,19604,19683,16845.0,30,16850.0,19,16850.0,16855.0,16850.0,16855.0,56,26,16850,27,16855,7
2016-05-27 10:07:00,10:07:00,10:07:51,19687,19764,16850.0,33,16855.0,10,16855.0,16855.0,16850.0,16850.0,31,-19,16845,31,16850,17
2016-05-27 10:08:00,10:08:03,10:08:59,19779,19873,16845.0,25,16850.0,27,16845.0,16845.0,16845.0,16845.0,35,23,16840,34,16845,4
2016-05-27 10:09:00,10:09:00,10:09:39,19874,19924,16840.0,33,16845.0,20,16845.0,16850.0,16845.0,16850.0,8,8,16845,8,16850,49
2016-05-27 10:10:00,10:10:03,10:10:57,19934,20000,16845.0,10,16850.0,49,16845.0,16845.0,16840.0,16840.0,26,-26,16840,36,16845,17
2016-05-27 10:11:00,10:11:12,10:11:40,20007,20054,16840.0,35,16845.0,15,16845.0,16845.0,16845.0,16845.0,28,-1,16840,39,16845,4
2016-05-27 10:12:00,10:12:37,10:12:58,20087,20108,16840.0,36,16845.0,13,16840.0,16840.0,16840.0,16840.0,5,-5,16840,32,16845,21
2016-05-27 10:13:00,10:13:43,10:13:44,20144,20161,16840.0,34,16845.0,15,16840.0,16840.0,16840.0,16840.0,24,-24,16840,29,16845,20
2016-05-27 10:14:00,10:14:00,10:14:00,0,0,0.0,0,0.0,0,16840.0,16840.0,16840.0,16840.0,0,0,0,0,0,0
2016-05-27 10:15:00,10:15:01,10:15:40,20211,20264,16840.0,28,16845.0,24,16845.0,16845.0,16840.0,16845.0,17,9,16845,23,16850,42
2016-05-27 10:16:00,10:16:57,10:16:57,20326,20333,16845.0,12,16850.0,52,16845.0,16845.0,16845.0,16845.0,10,-10,16840,25,16845,15
2016-05-27 10:17:00,10:17:00,10:17:00,0,0,0.0,0,0.0,0,16845.0,16845.0,16845.0,16845.0,0,0,0,0,0,0
2016-05-27 10:18:00,10:18:23,10:18:23,20388,20389,16840.0,28,16845.0,28,16840.0,16840.0,16840.0,16840.0,4,-4,16840,24,16845,32
2016-05-27 10:19:00,10:19:15,10:19:59,20427,20479,16840.0,18,16845.0,40,16840.0,16840.0,16840.0,16840.0,40,-22,16840,5,16845,41
2016-05-27 10:20:00,10:20:20,10:20:42,20505,20548,16840.0,33,16845.0,17,16845.0,16850.0,16845.0,16850.0,67,67,16845,44,16850,25
2016-05-27 10:21:00,10:21:53,10:21:53,20589,20589,16845.0,37,16850.0,45,16850.0,16850.0,16850.0,16850.0,1,1,16845,36,16850,44
2016-05-27 10:22:00,10:22:03,10:22:39,20596,20615,16845.0,39,16850.0,42,16850.0,16850.0,16850.0,16850.0,3,3,16845,46,16850,38
2016-05-27 10:23:00,10:23:23,10:23:44,20633,20664,16845.0,36,16850.0,43,16850.0,16850.0,16845.0,16845.0,34,-32,16845,7,16850,61
2016-05-27 10:24:00,10:24:45,10:24:45,20705,20705,16845.0,36,16850.0,46,16845.0,16845.0,16845.0,16845.0,1,-1,16845,35,16850,47
2016-05-27 10:25:00,10:25:03,10:25:49,20716,20785,16845.0,25,16850.0,56,16845.0,16845.0,16845.0,16845.0,50,-42,16840,131,16845,28
2016-05-27 10:26:00,10:26:50,10:26:56,20824,20844,16840.0,131,16845.0,44,16840.0,16845.0,16840.0,16845.0,26,18,16845,15,16850,56
2016-05-27 10:27:00,10:27:18,10:27:18,20853,20858,16845.0,23,16850.0,57,16845.0,16845.0,16845.0,16845.0,10,-10,16840,125,16845,6
2016-05-27 10:28:00,10:28:59,10:28:59,20915,20938,16840.0,122,16845.0,26,16845.0,16845.0,16845.0,16845.0,39,39,16840,125,16845,5
2016-05-27 10:29:00,10:29:05,10:29:58,20948,21035,16840.0,123,16845.0,18,16845.0,16850.0,16845.0,16850.0,45,-15,16845,44,16850,41
2016-05-27 10:30:00,10:30:00,10:30:49,21040,21131,16845.0,44,16850.0,41,16850.0,16850.0,16850.0,16850.0,138,138,16850,13,16855,44
2016-05-27 10:31:00,10:31:02,10:31:32,21157,21228,16850.0,33,16855.0,36,16855.0,16855.0,16850.0,16850.0,67,-55,16845,41,16850,12
2016-05-27 10:32:00,10:32:26,10:32:50,21256,21291,16845.0,41,16850.0,26,16850.0,16850.0,16850.0,16850.0,26,26,16850,2,16855,41
2016-05-27 10:33:00,10:33:25,10:33:35,21334,21354,16845.0,42,16850.0,6,16850.0,16855.0,16845.0,16850.0,14,8,16845,45,16855,39
2016-05-27 10:34:00,10:34:00,10:34:00,0,0,0.0,0,0.0,0,16850.0,16850.0,16850.0,16850.0,0,0,0,0,0,0
2016-05-27 10:35:00,10:35:04,10:35:24,21400,21429,16845.0,42,16850.0,10,16850.0,16850.0,16850.0,16850.0,10,10,16845,37,16850,31
2016-05-27 10:36:00,10:36:59,10:36:59,21483,21484,16845.0,46,16850.0,7,16850.0,16850.0,16850.0,16850.0,4,4,16845,45,16850,2
2016-05-27 10:37:00,10:37:28,10:37:28,21507,21514,16845.0,41,16850.0,22,16850.0,16850.0,16850.0,16850.0,14,14,16845,43,16850,13
2016-05-27 10:38:00,10:38:29,10:38:57,21556,21616,16845.0,46,16850.0,19,16850.0,16855.0,16850.0,16855.0,57,50,16850,40,16855,15
2016-05-27 10:39:00,10:39:04,10:39:46,21624,21666,16850.0,40,16855.0,26,16855.0,16855.0,16850.0,16855.0,34,8,16850,40,16855,5
2016-05-27 10:40:00,10:40:00,10:40:00,0,0,0.0,0,0.0,0,16855.0,16855.0,16855.0,16855.0,0,0,0,0,0,0
2016-05-27 10:41:00,10:41:03,10:41:56,21733,21803,16850.0,39,16855.0,5,16855.0,16855.0,16855.0,16855.0,43,-28,16850,39,16855,2
2016-05-27 10:42:00,10:42:21,10:42:57,21822,21883,16855.0,14,16860.0,45,16855.0,16860.0,16850.0,16855.0,36,-24,16850,42,16855,5
2016-05-27 10:43:00,10:43:06,10:43:56,21899,21957,16850.0,50,16855.0,3,16855.0,16855.0,16855.0,16855.0,32,12,16850,49,16860,45
2016-05-27 10:44:00,10:44:00,10:44:00,0,0,0.0,0,0.0,0,16855.0,16855.0,16855.0,16855.0,0,0,0,0,0,0
2016-05-27 10:45:00,10:45:02,10:45:15,21993,22015,16850.0,44,16855.0,19,16855.0,16855.0,16855.0,16855.0,13,5,16850,44,16855,8
2016-05-27 10:46:00,10:46:23,10:46:56,22056,22092,16850.0,39,16855.0,20,16855.0,16855.0,16855.0,16855.0,16,4,16855,13,16860,43
2016-05-27 10:47:00,10:47:06,10:47:10,22100,22120,16855.0,16,16860.0,42,16855.0,16855.0,16855.0,16855.0,16,-8,16855,11,16860,42
2016-05-27 10:48:00,10:48:10,10:48:55,22159,22196,16850.0,43,16855.0,8,16855.0,16855.0,16855.0,16855.0,11,3,16855,2,16855,15
2016-05-27 10:49:00,10:49:01,10:49:58,22207,22295,16850.0,43,16855.0,8,16855.0,16860.0,16850.0,16855.0,31,3,16850,47,16855,10
2016-05-27 10:50:00,10:50:19,10:50:33,22306,22334,16850.0,47,16855.0,19,16855.0,16855.0,16855.0,16855.0,29,5,16850,48,16855,2
2016-05-27 10:51:00,10:51:07,10:51:47,22350,22389,16850.0,50,16855.0,12,16855.0,16855.0,16855.0,16855.0,10,0,16855,4,16860,41
2016-05-27 10:52:00,10:52:12,10:52:48,22413,22430,16850.0,55,16855.0,5,16855.0,16860.0,16855.0,16860.0,4,4,16855,25,16860,45
2016-05-27 10:53:00,10:53:31,10:53:35,22439,22445,16855.0,23,16860.0,42,16860.0,16860.0,16860.0,16860.0,2,2,16855,31,16860,36
2016-05-27 10:54:00,10:54:00,10:54:00,0,0,0.0,0,0.0,0,16860.0,16860.0,16860.0,16860.0,0,0,0,0,0,0
2016-05-27 10:55:00,10:55:22,10:55:22,22479,22503,16855.0,35,16860.0,35,16860.0,16860.0,16860.0,16860.0,44,44,16855,38,16865,43
2016-05-27 10:56:00,10:56:00,10:56:00,0,0,0.0,0,0.0,0,16860.0,16860.0,16860.0,16860.0,0,0,0,0,0,0
2016-05-27 10:57:00,10:57:15,10:57:15,22542,22559,16860.0,16,16865.0,39,16860.0,16860.0,16860.0,16860.0,29,-29,16860,8,16865,40
2016-05-27 10:58:00,10:58:01,10:58:58,22573,22633,16860.0,31,16865.0,30,16865.0,16865.0,16860.0,16860.0,44,18,16860,20,16865,31
2016-05-27 10:59:00,10:59:21,10:59:37,22654,22693,16860.0,28,16865.0,11,16865.0,16865.0,16865.0,16865.0,33,7,16860,37,16865,15
2016-05-27 11:00:00,11:00:00,11:00:57,22711,22774,16860.0,29,16865.0,24,16865.0,16865.0,16860.0,16865.0,17,5,16865,5,16870,47
2016-05-27 11:01:00,11:01:02,11:01:34,22780,22862,16865.0,13,16870.0,49,16865.0,16865.0,16865.0,16865.0,41,-11,16865,7,16870,50
2016-05-27 11:02:00,11:02:56,11:02:57,22912,22925,16865.0,18,16870.0,68,16865.0,16865.0,16865.0,16865.0,16,-16,16865,22,16870,42
2016-05-27 11:03:00,11:03:25,11:03:57,22945,23124,16865.0,24,16870.0,42,16870.0,16870.0,16855.0,16860.0,210,-34,16855,37,16865,127
2016-05-27 11:04:00,11:04:04,11:04:59,23131,23319,16860.0,9,16865.0,126,16860.0,16870.0,16860.0,16865.0,184,32,16865,8,16870,122
2016-05-27 11:05:00,11:05:01,11:05:58,23327,23488,16865.0,10,16870.0,125,16865.0,16865.0,16855.0,16865.0,355,137,16860,85,16865,8
2016-05-27 11:06:00,11:06:02,11:06:10,23493,23541,16860.0,86,16865.0,6,16865.0,16870.0,16865.0,16865.0,53,35,16865,7,16870,47
2016-05-27 11:07:00,11:07:19,11:07:36,23596,23649,16865.0,12,16870.0,233,16865.0,16870.0,16865.0,16870.0,62,42,16865,53,16870,17
2016-05-27 11:08:00,11:08:23,11:08:56,23678,23769,16865.0,33,16870.0,125,16865.0,16875.0,16865.0,16875.0,167,-125,16870,39,16875,29
2016-05-27 11:09:00,11:09:06,11:09:51,23775,23933,16870.0,42,16875.0,29,16875.0,16880.0,16875.0,16875.0,148,88,16875,22,16880,37
2016-05-27 11:10:00,11:10:13,11:10:52,23967,24049,16875.0,17,16880.0,40,16875.0,16875.0,16875.0,16875.0,25,-25,16875,8,16880,37
2016-05-27 11:11:00,11:11:00,11:11:00,0,0,0.0,0,0.0,0,16875.0,16875.0,16875.0,16875.0,0,0,0,0,0,0
2016-05-27 11:12:00,11:12:02,11:12:34,24109,24126,16875.0,10,16880.0,35,16875.0,16875.0,16875.0,16875.0,13,-13,16870,35,16875,6
2016-05-27 11:13:00,11:13:00,11:13:16,24143,24178,16870.0,35,16875.0,11,16875.0,16875.0,16875.0,16875.0,22,8,16870,34,16875,13
2016-05-27 11:14:00,11:14:25,11:14:39,24219,24297,16870.0,26,16875.0,131,16870.0,16875.0,16865.0,16875.0,112,-76,16875,18,16880,29
2016-05-27 11:15:00,11:15:05,11:15:21,24317,24342,16875.0,21,16880.0,34,16875.0,16875.0,16875.0,16875.0,14,-14,16875,3,16880,38
2016-05-27 11:16:00,11:16:02,11:16:59,24380,24513,16875.0,8,16880.0,31,16875.0,16885.0,16875.0,16880.0,133,41,16880,8,16880,2
2016-05-27 11:17:00,11:17:01,11:17:57,24516,24613,16880.0,9,16885.0,40,16880.0,16880.0,16870.0,16875.0,78,-74,16870,40,16875,12
2016-05-27 11:18:00,11:18:01,11:18:40,24622,24715,16870.0,28,16875.0,35,16870.0,16875.0,16870.0,16875.0,71,11,16870,41,16875,6
2016-05-27 11:19:00,11:19:00,11:19:00,0,0,0.0,0,0.0,0,16875.0,16875.0,16875.0,16875.0,0,0,0,0,0,0
2016-05-27 11:20:00,11:20:17,11:20:34,24756,24780,16870.0,42,16875.0,32,16875.0,16880.0,16875.0,16880.0,26,26,16875,23,16880,27
2016-05-27 11:21:00,11:21:34,11:21:51,24802,24817,16875.0,26,16880.0,33,16880.0,16880.0,16875.0,16875.0,8,-2,16875,34,16880,22
2016-05-27 11:22:00,11:22:01,11:22:59,24824,24899,16875.0,19,16880.0,38,16880.0,16880.0,16875.0,16880.0,56,-18,16875,36,16880,4
2016-05-27 11:23:00,11:23:05,11:23:48,24910,24931,16875.0,37,16880.0,20,16880.0,16880.0,16880.0,16880.0,3,3,16875,41,16880,10
2016-05-27 11:24:00,11:24:10,11:24:33,24944,24979,16875.0,42,16880.0,11,16875.0,16875.0,16875.0,16875.0,23,-23,16875,6,16880,33
2016-05-27 11:25:00,11:25:16,11:25:42,25010,25043,16875.0,8,16880.0,29,16875.0,16875.0,16875.0,16875.0,14,-2,16875,9,16880,32
2016-05-27 11:26:00,11:26:06,11:26:21,25058,25075,16875.0,8,16880.0,30,16875.0,16875.0,16875.0,16875.0,10,-2,16875,13,16880,30
2016-05-27 11:27:00,11:27:03,11:27:50,25088,25120,16875.0,10,16880.0,33,16875.0,16875.0,16870.0,16870.0,5,-5,16870,30,16875,47
2016-05-27 11:28:00,11:28:15,11:28:59,25131,25165,16870.0,15,16875.0,48,16870.0,16870.0,16870.0,16870.0,22,-22,16870,12,16875,56
2016-05-27 11:29:00,11:29:01,11:29:38,25168,25243,16870.0,12,16875.0,56,16870.0,16870.0,16870.0,16870.0,52,-18,16865,39,16870,15
2016-05-27 11:30:00,11:30:00,11:30:46,25259,25388,16865.0,23,16870.0,30,16865.0,16870.0,16865.0,16865.0,94,4,16860,21,16865,29
2016-05-27 11:31:00,11:31:02,11:31:59,25408,25516,16860.0,30,16865.0,23,16860.0,16870.0,16860.0,16870.0,49,35,16870,26,16875,57
2016-05-27 11:32:00,11:32:06,11:32:34,25523,25580,16870.0,28,16875.0,53,16870.0,16870.0,16865.0,16865.0,45,-21,16865,62,16870,24
2016-05-27 11:33:00,11:33:00,11:33:58,25607,25721,16865.0,59,16870.0,30,16870.0,16870.0,16865.0,16870.0,105,77,16865,70,16870,10
2016-05-27 11:34:00,11:34:41,11:34:54,25747,25790,16865.0,67,16870.0,38,16865.0,16870.0,16865.0,16870.0,68,16,16865,59,16870,32
2016-05-27 11:35:00,11:35:20,11:35:20,25822,25822,16865.0,58,16870.0,21,16865.0,16865.0,16865.0,16865.0,2,-2,16865,56,16870,20
2016-05-27 11:36:00,11:36:08,11:36:29,25857,25878,16865.0,53,16870.0,37,16865.0,16870.0,16865.0,16870.0,16,8,16865,56,16870,3
2016-05-27 11:37:00,11:37:34,11:37:43,25920,25968,16865.0,62,16870.0,22,16870.0,16870.0,16870.0,16870.0,70,36,16865,55,16870,10
2016-05-27 11:38:00,11:38:16,11:38:55,25994,26030,16865.0,56,16870.0,21,16870.0,16870.0,16870.0,16870.0,41,41,16865,64,16870,20
2016-05-27 11:39:00,11:39:05,11:39:45,26035,26069,16865.0,64,16870.0,15,16870.0,16870.0,16870.0,16870.0,28,22,16865,73,16870,3
2016-05-27 11:40:00,11:40:14,11:40:59,26087,26104,16865.0,70,16870.0,32,16870.0,16870.0,16865.0,16865.0,9,7,16865,65,16870,34
2016-05-27 11:41:00,11:41:01,11:41:14,26110,26237,16865.0,66,16870.0,38,16865.0,16865.0,16860.0,16860.0,201,-123,16855,38,16865,35
2016-05-27 11:42:00,11:42:31,11:42:47,26310,26338,16855.0,38,16860.0,29,16855.0,16855.0,16855.0,16855.0,28,-28,16850,55,16855,14
2016-05-27 11:43:00,11:43:29,11:43:29,26379,26379,16850.0,50,16855.0,24,16850.0,16850.0,16850.0,16850.0,4,-4,16850,40,16855,28
2016-05-27 11:44:00,11:44:01,11:44:34,26404,26445,16850.0,42,16855.0,28,16850.0,16850.0,16850.0,16850.0,67,-67,16850,9,16855,54
2016-05-27 11:45:00,11:45:08,11:45:12,26476,26478,16850.0,33,16855.0,38,16850.0,16850.0,16850.0,16850.0,5,-5,16850,27,16855,39
2016-05-27 11:46:00,11:46:35,11:46:40,26526,26538,16850.0,33,16855.0,45,16850.0,16855.0,16850.0,16855.0,7,-1,16850,33,16855,39
2016-05-27 11:47:00,11:47:00,11:47:00,26549,26549,16850.0,36,16855.0,48,16855.0,16855.0,16855.0,16855.0,1,1,16850,38,16855,43
2016-05-27 11:48:00,11:48:02,11:48:41,26575,26613,16850.0,56,16855.0,32,16850.0,16855.0,16850.0,16855.0,20,12,16850,52,16855,22
2016-05-27 11:49:00,11:49:13,11:49:43,26624,26651,16850.0,54,16855.0,25,16855.0,16855.0,16850.0,16855.0,4,2,16850,52,16855,27
2016-05-27 11:50:00,11:50:00,11:50:57,26663,26725,16850.0,60,16855.0,34,16855.0,16855.0,16855.0,16855.0,33,19,16850,49,16855,19
2016-05-27 11:51:00,11:51:06,11:51:44,26730,26767,16850.0,49,16855.0,19,16855.0,16855.0,16850.0,16855.0,14,12,16850,45,16855,25
2016-05-27 11:52:00,11:52:00,11:52:19,26775,26846,16850.0,45,16855.0,26,16850.0,16855.0,16850.0,16850.0,64,-56,16850,27,16855,27
2016-05-27 11:53:00,11:53:45,11:53:50,26909,26915,16850.0,32,16855.0,37,16850.0,16850.0,16850.0,16850.0,4,-4,16850,27,16855,48
2016-05-27 11:54:00,11:54:23,11:54:39,26936,27006,16850.0,33,16855.0,33,16850.0,16850.0,16845.0,16850.0,83,-71,16845,40,16855,61
2016-05-27 11:55:00,11:55:06,11:55:47,27033,27106,16845.0,18,16850.0,46,16845.0,16850.0,16845.0,16845.0,41,-39,16845,20,16850,48
2016-05-27 11:56:00,11:56:24,11:56:24,27131,27132,16845.0,20,16850.0,47,16845.0,16845.0,16845.0,16845.0,3,-3,16845,16,16850,44
2016-05-27 11:57:00,11:57:17,11:57:41,27178,27273,16845.0,30,16850.0,46,16845.0,16850.0,16845.0,16850.0,103,-43,16845,42,16850,18
2016-05-27 11:58:00,11:58:02,11:58:59,27299,27371,16845.0,35,16850.0,17,16850.0,16850.0,16850.0,16850.0,28,14,16845,46,16850,1
2016-05-27 11:59:00,11:59:01,11:59:57,27375,27447,16845.0,48,16850.0,1,16850.0,16850.0,16845.0,16845.0,33,-29,16845,40,16850,20
2016-05-27 12:00:00,12:00:00,12:00:59,27451,27501,16845.0,40,16850.0,23,16850.0,16855.0,16850.0,16855.0,22,10,16850,31,16855,48
2016-05-27 12:01:00,12:01:02,12:01:20,27504,27519,16850.0,31,16855.0,48,16855.0,16855.0,16850.0,16850.0,3,1,16850,38,16855,44
2016-05-27 12:02:00,12:02:01,12:02:05,27551,27559,16850.0,51,16855.0,43,16850.0,16850.0,16850.0,16850.0,4,-4,16850,44,16855,43
2016-05-27 12:03:00,12:03:23,12:03:39,27587,27613,16850.0,48,16855.0,29,16850.0,16855.0,16850.0,16855.0,10,2,16850,31,16855,40
2016-05-27 12:04:00,12:04:04,12:04:40,27620,27691,16850.0,29,16855.0,49,16855.0,16855.0,16850.0,16850.0,71,-53,16850,12,16855,48
2016-05-27 12:05:00,12:05:32,12:05:50,27717,27750,16850.0,22,16855.0,53,16850.0,16850.0,16845.0,16845.0,22,-22,16845,32,16850,30
2016-05-27 12:06:00,12:06:00,12:06:00,0,0,0.0,0,0.0,0,16845.0,16845.0,16845.0,16845.0,0,0,0,0,0,0
2016-05-27 12:07:00,12:07:02,12:07:34,27789,27835,16845.0,27,16850.0,44,16850.0,16850.0,16845.0,16850.0,9,1,16845,38,16850,18
2016-05-27 12:08:00,12:08:02,12:08:31,27855,27896,16845.0,40,16850.0,15,16850.0,16850.0,16850.0,16850.0,25,7,16845,32,16850,39
2016-05-27 12:09:00,12:09:44,12:09:44,27923,27926,16845.0,29,16850.0,40,16845.0,16845.0,16845.0,16845.0,4,-4,16845,25,16850,39
2016-05-27 12:10:00,12:10:06,12:10:22,27934,27965,16845.0,33,16850.0,39,16850.0,16850.0,16850.0,16850.0,21,19,16845,45,16850,18
2016-05-27 12:11:00,12:11:07,12:11:55,27980,28006,16845.0,41,16850.0,40,16850.0,16850.0,16845.0,16850.0,7,-1,16845,32,16850,41
2016-05-27 12:12:00,12:12:41,12:12:49,28041,28049,16845.0,44,16850.0,25,16850.0,16850.0,16845.0,16845.0,2,0,16845,23,16850,44
2016-05-27 12:13:00,12:13:00,12:13:00,0,0,0.0,0,0.0,0,16845.0,16845.0,16845.0,16845.0,0,0,0,0,0,0
2016-05-27 12:14:00,12:14:01,12:14:59,28104,28183,16845.0,51,16850.0,27,16845.0,16850.0,16845.0,16850.0,55,37,16845,60,16855,51
2016-05-27 12:15:00,12:15:01,12:15:57,28189,28251,16850.0,13,16855.0,46,16850.0,16850.0,16850.0,16850.0,35,-30,16850,31,16855,40
2016-05-27 12:16:00,12:16:20,12:16:20,28266,28268,16850.0,40,16855.0,37,16855.0,16855.0,16855.0,16855.0,3,3,16850,43,16855,32
2016-05-27 12:17:00,12:17:30,12:17:30,28286,28286,16850.0,43,16855.0,30,16850.0,16850.0,16850.0,16850.0,3,-3,16850,39,16855,32
2016-05-27 12:18:00,12:18:35,12:18:35,28310,28311,16850.0,20,16855.0,53,16855.0,16855.0,16855.0,16855.0,3,3,16850,23,16855,50
2016-05-27 12:19:00,12:19:27,12:19:55,28341,28361,16850.0,25,16855.0,47,16855.0,16855.0,16850.0,16850.0,6,-2,16850,15,16855,50
2016-05-27 12:20:00,12:20:32,12:20:58,28380,28392,16850.0,44,16855.0,28,16850.0,16855.0,16850.0,16855.0,3,-1,16850,43,16855,20
2016-05-27 12:21:00,12:21:00,12:21:00,0,0,0.0,0,0.0,0,16855.0,16855.0,16855.0,16855.0,0,0,0,0,0,0
2016-05-27 12:22:00,12:22:29,12:22:50,28430,28498,16850.0,37,16855.0,40,16850.0,16850.0,16850.0,16850.0,81,-53,16850,7,16855,46
2016-05-27 12:23:00,12:23:05,12:23:10,28514,28522,16850.0,10,16855.0,44,16850.0,16850.0,16850.0,16850.0,7,-3,16845,46,16850,11
2016-05-27 12:24:00,12:24:36,12:24:36,28563,28577,16845.0,25,16850.0,41,16845.0,16845.0,16845.0,16845.0,34,-34,16840,140,16845,27
2016-05-27 12:25:00,12:25:04,12:25:56,28593,28657,16840.0,139,16845.0,33,16840.0,16845.0,16840.0,16840.0,59,45,16840,149,16845,10
2016-05-27 12:26:00,12:26:01,12:26:49,28667,28697,16840.0,136,16845.0,26,16840.0,16840.0,16840.0,16840.0,6,-6,16840,137,16845,6
2016-05-27 12:27:00,12:27:54,12:27:54,28758,28760,16840.0,131,16845.0,13,16845.0,16845.0,16845.0,16845.0,5,5,16840,133,16845,5
2016-05-27 12:28:00,12:28:04,12:28:28,28768,28786,16840.0,133,16845.0,7,16845.0,16845.0,16845.0,16845.0,8,2,16840,138,16845,5
2016-05-27 12:29:00,12:29:44,12:29:45,28817,28821,16840.0,135,16845.0,13,16840.0,16845.0,16840.0,16845.0,4,-2,16840,131,16845,11
2016-05-27 12:30:00,12:30:00,12:30:00,28831,28831,16840.0,130,16845.0,32,16845.0,16845.0,16845.0,16845.0,1,1,16840,132,16845,25
2016-05-27 12:31:00,12:31:17,12:31:34,28858,28891,16840.0,139,16845.0,17,16845.0,16850.0,16845.0,16850.0,30,30,16845,23,16850,64
2016-05-27 12:32:00,12:32:57,12:32:57,28933,28949,16845.0,24,16850.0,75,16845.0,16845.0,16845.0,16845.0,22,-22,16840,145,16845,29
2016-05-27 12:33:00,12:33:12,12:33:52,28967,29019,16840.0,146,16845.0,14,16845.0,16845.0,16845.0,16845.0,43,11,16840,135,16845,12
2016-05-27 12:34:00,12:34:25,12:34:25,29033,29033,16840.0,129,16845.0,34,16845.0,16845.0,16845.0,16845.0,1,1,16840,131,16845,30
2016-05-27 12:35:00,12:35:03,12:35:37,29048,29074,16840.0,128,16845.0,41,16840.0,16845.0,16840.0,16845.0,16,6,16845,4,16850,71
2016-05-27 12:36:00,12:36:14,12:36:46,29099,29208,16845.0,7,16850.0,69,16845.0,16845.0,16835.0,16835.0,195,-155,16835,22,16840,58
2016-05-27 12:37:00,12:37:30,12:37:59,29229,29309,16835.0,23,16840.0,50,16835.0,16835.0,16825.0,16825.0,141,-141,16820,46,16825,30
2016-05-27 12:38:00,12:38:05,12:38:45,29320,29406,16820.0,37,16825.0,43,16820.0,16825.0,16820.0,16825.0,87,-64,16820,36,16825,36
2016-05-27 12:39:00,12:39:21,12:39:59,29432,29476,16820.0,44,16825.0,48,16820.0,16820.0,16820.0,16820.0,15,-15,16820,30,16825,59
2016-05-27 12:40:00,12:40:00,12:40:36,29478,29609,16820.0,40,16825.0,59,16820.0,16820.0,16815.0,16820.0,178,-138,16815,62,16820,6
2016-05-27 12:41:00,12:41:00,12:41:32,29652,29683,16815.0,26,16820.0,61,16815.0,16820.0,16815.0,16815.0,22,-18,16815,14,16820,77
2016-05-27 12:42:00,12:42:01,12:42:59,29706,29796,16815.0,23,16820.0,71,16815.0,16825.0,16815.0,16825.0,76,58,16820,38,16825,53
2016-05-27 12:43:00,12:43:10,12:43:52,29803,29843,16820.0,38,16825.0,46,16825.0,16825.0,16820.0,16820.0,10,-2,16820,30,16825,49
2016-05-27 12:44:00,12:44:00,12:44:58,29853,29937,16820.0,34,16825.0,41,16825.0,16825.0,16825.0,16825.0,76,66,16825,7,16830,80
2016-05-27 12:45:00,12:45:31,12:45:31,29959,29962,16825.0,8,16830.0,78,16825.0,16825.0,16825.0,16825.0,10,-10,16820,49,16830,83
2016-05-27 12:46:00,12:46:49,12:46:49,29994,29995,16825.0,28,16830.0,77,16825.0,16825.0,16825.0,16825.0,5,-5,16825,21,16830,76
2016-05-27 12:47:00,12:47:04,12:47:51,30001,30052,16825.0,12,16830.0,76,16825.0,16830.0,16825.0,16825.0,35,-19,16820,49,16825,15
2016-05-27 12:48:00,12:48:23,12:48:46,30082,30117,16820.0,27,16825.0,32,16820.0,16820.0,16820.0,16820.0,53,-25,16815,42,16820,9
2016-05-27 12:49:00,12:49:30,12:49:55,30150,30203,16815.0,45,16820.0,9,16820.0,16825.0,16820.0,16825.0,56,24,16820,35,16825,11
2016-05-27 12:50:00,12:50:05,12:50:57,30217,30224,16820.0,30,16825.0,30,16820.0,16820.0,16820.0,16820.0,3,-3,16820,25,16825,38
2016-05-27 12:51:00,12:51:43,12:51:51,30234,30244,16820.0,33,16825.0,37,16820.0,16825.0,16820.0,16820.0,6,-4,16820,33,16825,33
2016-05-27 12:52:00,12:52:20,12:52:30,30260,30297,16820.0,29,16825.0,35,16820.0,16820.0,16820.0,16820.0,53,-11,16815,43,16825,43
2016-05-27 12:53:00,12:53:20,12:53:40,30326,30340,16815.0,38,16820.0,20,16820.0,16820.0,16815.0,16815.0,3,-1,16815,36,16820,19
2016-05-27 12:54:00,12:54:34,12:54:37,30370,30377,16815.0,31,16820.0,40,16815.0,16815.0,16815.0,16815.0,4,-4,16815,25,16820,29
2016-05-27 12:55:00,12:55:07,12:55:55,30387,30402,16815.0,29,16820.0,33,16815.0,16820.0,16815.0,16820.0,3,-1,16815,32,16820,29
2016-05-27 12:56:00,12:56:14,12:56:19,30416,30423,16815.0,39,16820.0,24,16815.0,16815.0,16815.0,16815.0,4,-4,16815,37,16820,30
2016-05-27 12:57:00,12:57:00,12:57:31,30445,30506,16815.0,42,16820.0,21,16820.0,16825.0,16820.0,16825.0,50,38,16825,21,16830,59
2016-05-27 12:58:00,12:58:11,12:58:56,30533,30589,16825.0,25,16830.0,66,16825.0,16825.0,16825.0,16825.0,63,-55,16825,25,16830,79
2016-05-27 12:59:00,12:59:25,12:59:47,30621,30666,16825.0,47,16830.0,82,16825.0,16830.0,16825.0,16830.0,57,-5,16825,43,16830,59
2016-05-27 13:00:00,13:00:00,13:00:59,30673,30839,16825.0,36,16830.0,60,16825.0,16840.0,16825.0,16840.0,163,53,16835,33,16840,35
2016-05-27 13:01:00,13:01:01,13:01:52,30844,31034,16835.0,34,16840.0,31,16840.0,16850.0,16840.0,16845.0,176,94,16840,35,16845,35
2016-05-27 13:02:00,13:02:10,13:02:56,31052,31197,16840.0,26,16845.0,44,16845.0,16845.0,16835.0,16845.0,129,87,16840,36,16845,14
2016-05-27 13:03:00,13:03:48,13:03:48,31242,31242,16840.0,29,16845.0,34,16840.0,16840.0,16840.0,16840.0,1,-1,16840,27,16845,36
2016-05-27 13:04:00,13:04:08,13:04:35,31253,31282,16840.0,26,16845.0,38,16840.0,16845.0,16840.0,16840.0,15,-13,16840,20,16845,35
2016-05-27 13:05:00,13:05:22,13:05:24,31311,31336,16840.0,20,16845.0,47,16840.0,16840.0,16840.0,16840.0,43,-17,16835,49,16845,44
2016-05-27 13:06:00,13:06:38,13:06:47,31377,31403,16840.0,20,16845.0,58,16840.0,16840.0,16840.0,16840.0,27,-13,16840,14,16845,49
2016-05-27 13:07:00,13:07:07,13:07:08,31419,31429,16840.0,13,16845.0,49,16840.0,16840.0,16840.0,16840.0,22,-10,16840,3,16845,58
2016-05-27 13:08:00,13:08:09,13:08:55,31483,31519,16840.0,32,16845.0,33,16840.0,16845.0,16840.0,16845.0,18,-12,16840,19,16845,50
2016-05-27 13:09:00,13:09:03,13:09:29,31526,31592,16840.0,15,16845.0,58,16840.0,16845.0,16840.0,16845.0,76,4,16840,44,16845,16
2016-05-27 13:10:00,13:10:00,13:10:46,31607,31668,16840.0,35,16845.0,12,16845.0,16845.0,16845.0,16845.0,40,12,16845,15,16850,67
2016-05-27 13:11:00,13:11:00,13:11:51,31687,31770,16845.0,17,16850.0,66,16850.0,16850.0,16850.0,16850.0,71,67,16850,24,16855,146
2016-05-27 13:12:00,13:12:51,13:12:57,31816,31857,16850.0,35,16855.0,27,16850.0,16850.0,16850.0,16850.0,49,-49,16850,23,16855,34
2016-05-27 13:13:00,13:13:10,13:13:57,31862,31993,16850.0,6,16855.0,35,16855.0,16855.0,16840.0,16840.0,88,-72,16835,38,16840,7
2016-05-27 13:14:00,13:14:00,13:14:48,32005,32182,16835.0,24,16840.0,34,16835.0,16835.0,16830.0,16835.0,132,5,16835,10,16840,46
2016-05-27 13:15:00,13:15:15,13:15:55,32217,32279,16835.0,3,16840.0,45,16835.0,16835.0,16830.0,16830.0,10,-10,16830,26,16835,22
2016-05-27 13:16:00,13:16:10,13:16:57,32284,32382,16830.0,26,16835.0,18,16835.0,16835.0,16830.0,16835.0,98,-26,16835,12,16840,43
2016-05-27 13:17:00,13:17:20,13:17:20,32401,32408,16830.0,34,16835.0,11,16835.0,16840.0,16835.0,16840.0,9,9,16835,7,16840,41
2016-05-27 13:18:00,13:18:19,13:18:38,32455,32497,16835.0,31,16840.0,30,16835.0,16840.0,16835.0,16840.0,40,28,16840,14,16845,40
2016-05-27 13:19:00,13:19:16,13:19:51,32531,32572,16840.0,14,16845.0,32,16840.0,16840.0,16835.0,16835.0,63,-63,16830,39,16835,16
2016-05-27 13:20:00,13:20:09,13:20:44,32585,32662,16830.0,38,16835.0,21,16830.0,16830.0,16830.0,16830.0,58,-58,16830,13,16835,40
2016-05-27 13:21:00,13:21:25,13:21:54,32700,32740,16830.0,15,16835.0,42,16830.0,16830.0,16830.0,16830.0,32,-20,16825,39,16835,45
2016-05-27 13:22:00,13:22:15,13:22:54,32765,32842,16825.0,18,16830.0,38,16825.0,16825.0,16820.0,16820.0,71,-11,16820,30,16825,22
2016-05-27 13:23:00,13:23:01,13:23:59,32849,33048,16820.0,37,16825.0,21,16825.0,16825.0,16815.0,16815.0,127,-47,16810,54,16815,5
2016-05-27 13:24:00,13:24:06,13:24:53,33056,33154,16810.0,46,16815.0,9,16815.0,16820.0,16815.0,16815.0,52,48,16815,2,16820,38
2016-05-27 13:25:00,13:25:15,13:25:49,33183,33273,16815.0,20,16820.0,48,16820.0,16820.0,16815.0,16820.0,101,61,16815,37,16825,46
2016-05-27 13:26:00,13:26:13,13:26:45,33290,33367,16820.0,19,16825.0,46,16825.0,16825.0,16820.0,16820.0,49,-17,16820,23,16825,46
2016-05-27 13:27:00,13:27:03,13:27:54,33379,33418,16820.0,37,16825.0,36,16820.0,16825.0,16820.0,16820.0,29,-23,16815,17,16820,37
2016-05-27 13:28:00,13:28:12,13:28:46,33450,33513,16815.0,21,16820.0,33,16815.0,16825.0,16815.0,16825.0,49,-15,16820,9,16825,59
2016-05-27 13:29:00,13:29:23,13:29:58,33536,33597,16820.0,16,16825.0,62,16820.0,16825.0,16820.0,16825.0,55,47,16820,35,16825,21
2016-05-27 13:30:00,13:30:00,13:30:36,33599,33686,16820.0,31,16825.0,21,16825.0,16825.0,16815.0,16815.0,93,-65,16810,40,16815,7
2016-05-27 13:31:00,13:31:01,13:31:55,33715,33823,16810.0,25,16815.0,42,16810.0,16815.0,16810.0,16815.0,68,2,16815,22,16820,27
2016-05-27 13:32:00,13:32:00,13:32:57,33835,33932,16815.0,33,16820.0,17,16820.0,16825.0,16820.0,16825.0,52,16,16820,40,16825,23
2016-05-27 13:33:00,13:33:10,13:33:46,33937,34002,16820.0,40,16825.0,23,16825.0,16825.0,16820.0,16825.0,57,23,16820,47,16825,11
2016-05-27 13:34:00,13:34:10,13:34:57,34032,34209,16820.0,36,16825.0,20,16825.0,16835.0,16825.0,16830.0,167,87,16830,18,16835,38
2016-05-27 13:35:00,13:35:13,13:35:57,34229,34362,16830.0,45,16835.0,10,16835.0,16840.0,16830.0,16840.0,126,54,16835,33,16840,20
2016-05-27 13:36:00,13:36:00,13:36:58,34371,34484,16835.0,28,16840.0,18,16840.0,16840.0,16835.0,16835.0,80,40,16830,54,16835,3
2016-05-27 13:37:00,13:37:05,13:37:45,34496,34542,16830.0,57,16835.0,8,16835.0,16835.0,16835.0,16835.0,9,9,16835,9,16840,40
2016-05-27 13:38:00,13:38:15,13:38:59,34573,34663,16835.0,13,16840.0,54,16835.0,16835.0,16835.0,16835.0,41,-11,16830,72,16840,60
2016-05-27 13:39:00,13:39:00,13:39:34,34665,34730,16830.0,69,16840.0,60,16835.0,16835.0,16830.0,16830.0,81,-23,16825,42,16830,18
2016-05-27 13:40:00,13:40:07,13:40:59,34759,34892,16825.0,37,16830.0,15,16825.0,16830.0,16825.0,16825.0,95,-35,16825,5,16830,34
2016-05-27 13:41:00,13:41:05,13:41:34,34903,34986,16825.0,19,16830.0,34,16825.0,16830.0,16825.0,16830.0,74,-24,16825,26,16830,48
2016-05-27 13:42:00,13:42:08,13:42:59,35010,35068,16825.0,32,16830.0,46,16830.0,16835.0,16830.0,16830.0,66,24,16830,47,16835,56
2016-05-27 13:43:00,13:43:19,13:43:57,35085,35210,16830.0,56,16835.0,34,16835.0,16840.0,16830.0,16830.0,171,62,16830,17,16835,45
2016-05-27 13:44:00,13:44:20,13:44:51,35227,35281,16830.0,26,16835.0,37,16830.0,16830.0,16825.0,16825.0,29,-29,16825,39,16830,20
2016-05-27 13:45:00,13:45:01,13:45:55,35298,35396,16825.0,38,16830.0,36,16825.0,16830.0,16825.0,16830.0,45,35,16825,57,16830,12
2016-05-27 13:46:00,13:46:09,13:46:59,35410,35522,16825.0,55,16830.0,23,16830.0,16830.0,16825.0,16830.0,47,38,16825,55,16830,7
2016-05-27 13:47:00,13:47:04,13:47:56,35527,35618,16825.0,55,16830.0,13,16830.0,16830.0,16825.0,16830.0,51,30,16825,60,16830,10
2016-05-27 13:48:00,13:48:11,13:48:55,35639,35723,16825.0,63,16830.0,13,16830.0,16835.0,16830.0,16835.0,36,34,16830,28,16835,31
2016-05-27 13:49:00,13:49:03,13:49:56,35736,35896,16830.0,32,16835.0,26,16830.0,16835.0,16830.0,16835.0,108,54,16835,13,16840,57
2016-05-27 13:50:00,13:50:00,13:50:57,35905,36053,16835.0,13,16840.0,56,16835.0,16840.0,16835.0,16835.0,95,55,16835,28,16840,41
2016-05-27 13:51:00,13:51:00,13:51:58,36058,36209,16835.0,24,16840.0,41,16840.0,16840.0,16830.0,16835.0,63,8,16830,45,16835,30
2016-05-27 13:52:00,13:52:00,13:52:58,36216,36343,16830.0,46,16835.0,26,16835.0,16840.0,16835.0,16835.0,83,21,16830,49,16835,2
2016-05-27 13:53:00,13:53:02,13:53:59,36352,36514,16830.0,47,16835.0,16,16835.0,16840.0,16835.0,16840.0,99,75,16835,43,16840,33
2016-05-27 13:54:00,13:54:02,13:54:57,36523,36686,16835.0,32,16840.0,43,16835.0,16835.0,16835.0,16835.0,120,-4,16830,78,16840,78
2016-05-27 13:55:00,13:55:00,13:55:54,36691,36812,16830.0,70,16840.0,80,16835.0,16835.0,16830.0,16835.0,49,14,16830,47,16835,5
2016-05-27 13:56:00,13:56:14,13:56:56,36829,36909,16830.0,44,16835.0,40,16830.0,16840.0,16830.0,16840.0,44,26,16835,17,16840,110
2016-05-27 13:57:00,13:57:04,13:57:54,36925,37018,16835.0,15,16840.0,107,16835.0,16835.0,16835.0,16835.0,38,-38,16835,35,16840,88
2016-05-27 13:58:00,13:58:12,13:58:59,37048,37198,16835.0,57,16840.0,68,16840.0,16840.0,16835.0,16835.0,175,131,16835,61,16840,41
2016-05-27 13:59:00,13:59:00,13:59:59,37201,37494,16835.0,61,16840.0,41,16835.0,16840.0,16835.0,16840.0,297,-44,16840,29,16845,61
2016-05-27 14:00:00,14:00:00,14:00:59,37497,37983,16840.0,29,16845.0,61,16840.0,16845.0,16820.0,16835.0,789,-274,16835,16,16840,82
2016-05-27 14:01:00,14:01:00,14:01:58,37986,38276,16835.0,16,16840.0,82,16835.0,16835.0,16820.0,16825.0,613,-473,16820,89,16825,15
2016-05-27 14:02:00,14:02:05,14:02:59,38287,38555,16820.0,73,16825.0,35,16825.0,16825.0,16805.0,16805.0,417,-215,16800,142,16805,19
2016-05-27 14:03:00,14:03:00,14:03:45,38558,38723,16800.0,142,16805.0,19,16800.0,16815.0,16800.0,16810.0,289,15,16810,87,16815,66
2016-05-27 14:04:00,14:04:00,14:04:59,38738,38838,16810.0,69,16815.0,68,16810.0,16815.0,16810.0,16810.0,145,-141,16810,43,16815,81
2016-05-27 14:05:00,14:05:05,14:05:51,38844,39112,16810.0,66,16815.0,81,16815.0,16815.0,16795.0,16805.0,445,-162,16805,10,16810,78
2016-05-27 14:06:00,14:06:02,14:06:50,39129,39240,16805.0,49,16810.0,75,16805.0,16805.0,16805.0,16805.0,115,-36,16805,41,16810,61
2016-05-27 14:07:00,14:07:06,14:07:55,39252,39350,16805.0,66,16810.0,70,16805.0,16805.0,16805.0,16805.0,133,-132,16800,95,16805,39
2016-05-27 14:08:00,14:08:01,14:08:59,39359,39645,16800.0,89,16805.0,35,16805.0,16820.0,16805.0,16820.0,611,201,16815,84,16820,41
2016-05-27 14:09:00,14:09:11,14:09:57,39666,39749,16815.0,90,16820.0,80,16815.0,16820.0,16815.0,16815.0,84,-58,16810,57,16815,3
