,ST,ET,sidx,eidx,bB,bBS,bA,bAS,O,H,L,C,V,OF,eB,eBS,eA,eAS
2016-12-06 08:00:00,08:00:00,08:00:56,2018,2454,18460.0,35,18465.0,31,18465.0,18485.0,18460.0,18465.0,574,84,18465,24,18470,49
2016-12-06 08:01:00,08:01:06,08:01:59,2472,2623,18465.0,46,18470.0,47,18470.0,18470.0,18465.0,18465.0,119,59,18465,37,18470,5
2016-12-06 08:02:00,08:02:00,08:02:56,2627,2879,18465.0,37,18470.0,20,18470.0,18490.0,18465.0,18490.0,314,192,18485,74,18490,31
2016-12-06 08:03:00,08:03:02,08:03:54,2898,3083,18485.0,72,18490.0,55,18485.0,18490.0,18480.0,18480.0,208,6,18480,40,18485,23
2016-12-06 08:04:00,08:04:00,08:04:56,3088,3246,18480.0,40,18485.0,31,18480.0,18485.0,18480.0,18480.0,129,-71,18475,34,18480,32
2016-12-06 08:05:00,08:05:00,08:05:51,3260,3480,18475.0,55,18480.0,28,18480.0,18490.0,18480.0,18480.0,240,-8,18480,37,18485,44
2016-12-06 08:06:00,08:06:01,08:06:57,3487,3660,18480.0,43,18485.0,46,18480.0,18490.0,18475.0,18485.0,196,-34,18480,60,18485,28
2016-12-06 08:07:00,08:07:05,08:07:59,3673,3863,18480.0,111,18485.0,27,18485.0,18485.0,18465.0,18470.0,217,-171,18465,22,18470,46
2016-12-06 08:08:00,08:08:00,08:08:59,3864,4107,18465.0,23,18470.0,47,18470.0,18475.0,18465.0,18475.0,234,120,18470,89,18475,15
2016-12-06 08:09:00,08:09:03,08:09:58,4112,4298,18470.0,88,18475.0,17,18475.0,18485.0,18470.0,18485.0,136,22,18480,40,18485,44
2016-12-06 08:10:00,08:10:00,08:10:59,4303,4633,18480.0,40,18485.0,53,18480.0,18480.0,18460.0,18470.0,336,-72,18465,54,18470,18
2016-12-06 08:11:00,08:11:01,08:11:40,4638,4784,18465.0,54,18470.0,37,18465.0,18470.0,18465.0,18465.0,113,-17,18465,5,18470,41
2016-12-06 08:12:00,08:12:00,08:12:58,4802,5204,18465.0,6,18470.0,44,18470.0,18470.0,18450.0,18455.0,556,-104,18455,42,18460,70
2016-12-06 08:13:00,08:13:08,08:13:56,5223,5530,18455.0,92,18460.0,78,18455.0,18465.0,18450.0,18455.0,401,19,18450,43,18455,31
2016-12-06 08:14:00,08:14:00,08:14:58,5539,5708,18450.0,41,18455.0,37,18450.0,18460.0,18450.0,18450.0,123,-23,18450,32,18455,41
2016-12-06 08:15:00,08:15:05,08:15:56,5719,5882,18450.0,45,18455.0,36,18450.0,18460.0,18450.0,18460.0,161,29,18460,48,18465,38
2016-12-06 08:16:00,08:16:01,08:16:58,5893,6108,18460.0,40,18465.0,67,18460.0,18465.0,18450.0,18460.0,164,32,18455,76,18460,42
2016-12-06 08:17:00,08:17:05,08:17:57,6116,6283,18455.0,72,18460.0,58,18455.0,18465.0,18450.0,18460.0,127,3,18455,71,18460,29
2016-12-06 08:18:00,08:18:00,08:18:55,6289,6476,18455.0,71,18460.0,19,18460.0,18465.0,18450.0,18450.0,156,-47,18450,56,18455,21
2016-12-06 08:19:00,08:19:01,08:19:58,6484,6830,18450.0,53,18455.0,49,18450.0,18450.0,18440.0,18445.0,417,-120,18445,71,18450,44
2016-12-06 08:20:00,08:20:05,08:20:57,6841,6968,18445.0,74,18450.0,45,18445.0,18455.0,18445.0,18455.0,105,39,18455,6,18460,64
2016-12-06 08:21:00,08:21:03,08:21:51,6981,7216,18455.0,33,18460.0,53,18455.0,18465.0,18455.0,18460.0,265,33,18455,65,18460,4
2016-12-06 08:22:00,08:22:00,08:22:58,7228,7373,18455.0,64,18460.0,32,18455.0,18465.0,18455.0,18460.0,130,86,18460,58,18465,21
2016-12-06 08:23:00,08:23:02,08:23:58,7381,7539,18460.0,50,18465.0,52,18460.0,18470.0,18460.0,18465.0,106,-8,18465,26,18470,61
2016-12-06 08:24:00,08:24:00,08:24:58,7544,7731,18465.0,34,18470.0,61,18465.0,18475.0,18465.0,18470.0,206,-12,18465,25,18470,56
2016-12-06 08:25:00,08:25:08,08:25:59,7749,7853,18465.0,25,18470.0,59,18470.0,18470.0,18460.0,18470.0,70,29,18465,64,18470,50
2016-12-06 08:26:00,08:26:01,08:26:50,7857,7966,18465.0,62,18470.0,50,18465.0,18470.0,18460.0,18470.0,86,-2,18465,9,18470,65
2016-12-06 08:27:00,08:27:00,08:27:57,7974,8084,18465.0,3,18470.0,65,18470.0,18470.0,18460.0,18465.0,61,17,18465,66,18470,64
2016-12-06 08:28:00,08:28:01,08:28:54,8091,8225,18465.0,66,18470.0,63,18470.0,18470.0,18460.0,18460.0,110,-24,18460,52,18465,2
2016-12-06 08:29:00,08:29:01,08:29:51,8234,8533,18465.0,7,18470.0,58,18465.0,18465.0,18445.0,18450.0,382,-204,18450,45,18455,25
2016-12-06 08:30:00,08:30:01,08:30:55,8543,8661,18450.0,56,18455.0,16,18455.0,18460.0,18455.0,18460.0,68,2,18455,43,18460,45
2016-12-06 08:31:00,08:31:03,08:31:51,8666,8885,18455.0,48,18460.0,43,18460.0,18475.0,18460.0,18470.0,199,-81,18470,21,18475,68
2016-12-06 08:32:00,08:32:06,08:32:56,8915,9106,18470.0,60,18475.0,54,18475.0,18475.0,18465.0,18470.0,308,-292,18465,18,18470,98
2016-12-06 08:33:00,08:33:03,08:33:39,9116,9247,18465.0,19,18470.0,99,18470.0,18475.0,18470.0,18470.0,220,14,18470,2,18475,74
2016-12-06 08:34:00,08:34:03,08:34:49,9277,9339,18465.0,65,18470.0,49,18470.0,18470.0,18470.0,18470.0,43,43,18465,71,18470,8
2016-12-06 08:35:00,08:35:00,08:35:56,9349,9514,18465.0,71,18470.0,11,18470.0,18470.0,18465.0,18470.0,117,-7,18465,60,18470,29
2016-12-06 08:36:00,08:36:08,08:36:57,9524,9667,18465.0,62,18470.0,35,18470.0,18475.0,18465.0,18465.0,146,36,18460,74,18470,114
2016-12-06 08:37:00,08:37:02,08:37:49,9672,9920,18465.0,4,18470.0,116,18465.0,18465.0,18445.0,18450.0,341,-195,18445,49,18450,99
2016-12-06 08:38:00,08:38:14,08:38:55,9938,10027,18445.0,56,18450.0,104,18450.0,18450.0,18445.0,18445.0,100,80,18440,61,18445,7
2016-12-06 08:39:00,08:39:11,08:39:45,10044,10123,18440.0,66,18445.0,12,18445.0,18445.0,18445.0,18445.0,97,97,18440,63,18445,5
2016-12-06 08:40:00,08:40:05,08:40:47,10136,10238,18440.0,65,18445.0,9,18445.0,18450.0,18440.0,18440.0,111,-36,18440,61,18445,61
2016-12-06 08:41:00,08:41:26,08:41:57,10252,10374,18440.0,58,18445.0,67,18440.0,18440.0,18435.0,18435.0,100,-52,18435,67,18440,60
2016-12-06 08:42:00,08:42:04,08:42:58,10386,10599,18435.0,10,18440.0,71,18435.0,18435.0,18425.0,18435.0,170,-32,18430,23,18435,57
2016-12-06 08:43:00,08:43:08,08:43:58,10611,10705,18430.0,72,18435.0,50,18435.0,18435.0,18430.0,18430.0,66,6,18425,67,18430,3
2016-12-06 08:44:00,08:44:00,08:44:57,10709,10899,18425.0,67,18430.0,4,18430.0,18440.0,18430.0,18435.0,151,-34,18430,66,18435,18
2016-12-06 08:45:00,08:45:01,08:45:46,10911,11031,18430.0,67,18435.0,52,18435.0,18445.0,18435.0,18445.0,133,81,18440,69,18445,22
2016-12-06 08:46:00,08:46:00,08:46:59,11049,11241,18440.0,67,18445.0,30,18445.0,18445.0,18430.0,18435.0,176,-124,18430,64,18435,13
2016-12-06 08:47:00,08:47:11,08:47:11,11254,11254,18430.0,64,18435.0,16,18435.0,18435.0,18435.0,18435.0,1,1,18430,62,18435,15
2016-12-06 08:48:00,08:48:00,08:48:57,11303,11402,18430.0,64,18435.0,11,18435.0,18435.0,18430.0,18435.0,56,12,18430,65,18440,71
2016-12-06 08:49:00,08:49:00,08:49:56,11407,11499,18430.0,67,18440.0,67,18435.0,18435.0,18435.0,18435.0,65,-29,18430,62,18435,3
2016-12-06 08:50:00,08:50:10,08:50:59,11520,11624,18430.0,63,18435.0,12,18435.0,18435.0,18435.0,18435.0,52,-2,18430,64,18440,84
2016-12-06 08:51:00,08:51:08,08:51:43,11639,11701,18430.0,65,18435.0,10,18435.0,18435.0,18435.0,18435.0,49,1,18430,65,18440,82
2016-12-06 08:52:00,08:52:00,08:52:59,11715,11907,18435.0,28,18440.0,72,18440.0,18440.0,18425.0,18430.0,205,-99,18425,22,18430,35
2016-12-06 08:53:00,08:53:02,08:53:59,11914,12097,18425.0,57,18430.0,25,18430.0,18435.0,18430.0,18435.0,158,15,18435,2,18440,67
2016-12-06 08:54:00,08:54:00,08:54:59,12100,12250,18435.0,2,18440.0,67,18435.0,18440.0,18430.0,18430.0,109,7,18430,10,18435,55
2016-12-06 08:55:00,08:55:02,08:55:25,12254,12306,18430.0,46,18435.0,55,18435.0,18440.0,18435.0,18435.0,21,-5,18435,19,18440,71
2016-12-06 08:56:00,08:56:03,08:56:59,12335,12418,18435.0,3,18440.0,87,18435.0,18435.0,18435.0,18435.0,31,-1,18430,48,18435,41
2016-12-06 08:57:00,08:57:06,08:57:42,12425,12479,18430.0,43,18435.0,43,18430.0,18430.0,18430.0,18430.0,44,-44,18425,66,18430,5
2016-12-06 08:58:00,08:58:00,08:58:55,12505,12789,18425.0,69,18430.0,36,18425.0,18425.0,18415.0,18420.0,354,-74,18420,13,18425,67
2016-12-06 08:59:00,08:59:00,08:59:19,12800,12854,18420.0,67,18425.0,27,18420.0,18425.0,18420.0,18425.0,84,74,18420,64,18430,63
2016-12-06 09:00:00,09:00:00,09:00:58,12898,13072,18420.0,70,18425.0,64,18425.0,18425.0,18420.0,18425.0,184,-97,18415,63,18425,69
2016-12-06 09:01:00,09:01:03,09:01:49,13078,13293,18420.0,61,18425.0,75,18420.0,18425.0,18410.0,18415.0,210,-6,18410,70,18415,17
2016-12-06 09:02:00,09:02:20,09:02:54,13327,13417,18410.0,74,18415.0,21,18415.0,18415.0,18415.0,18415.0,62,6,18410,69,18420,63
2016-12-06 09:03:00,09:03:00,09:03:57,13427,13606,18415.0,13,18420.0,61,18415.0,18415.0,18410.0,18410.0,117,-59,18410,16,18415,76
2016-12-06 09:04:00,09:04:00,09:04:51,13608,13732,18410.0,16,18415.0,74,18410.0,18415.0,18410.0,18415.0,94,54,18410,60,18415,78
2016-12-06 09:05:00,09:05:00,09:05:54,13736,13837,18410.0,60,18415.0,74,18410.0,18415.0,18410.0,18410.0,117,-39,18405,63,18410,8
2016-12-06 09:06:00,09:06:16,09:06:58,13868,13987,18405.0,49,18410.0,50,18405.0,18405.0,18400.0,18400.0,132,-104,18400,61,18405,75
2016-12-06 09:07:00,09:07:11,09:07:57,13999,14133,18400.0,70,18405.0,71,18400.0,18410.0,18400.0,18410.0,132,92,18410,30,18415,77
2016-12-06 09:08:00,09:08:03,09:08:50,14141,14285,18410.0,38,18415.0,77,18415.0,18415.0,18405.0,18405.0,177,67,18405,28,18410,62
2016-12-06 09:09:00,09:09:05,09:09:55,14299,14390,18405.0,89,18410.0,67,18410.0,18410.0,18405.0,18405.0,98,-80,18400,70,18405,60
2016-12-06 09:10:00,09:10:00,09:10:28,14398,14485,18400.0,70,18405.0,48,18400.0,18410.0,18400.0,18405.0,118,52,18400,62,18405,9
2016-12-06 09:11:00,09:11:30,09:11:39,14544,14578,18400.0,55,18405.0,42,18400.0,18405.0,18400.0,18405.0,22,16,18400,58,18405,1
2016-12-06 09:12:00,09:12:00,09:12:58,14607,14816,18400.0,58,18405.0,24,18405.0,18415.0,18405.0,18415.0,154,64,18415,1,18420,65
2016-12-06 09:13:00,09:13:05,09:13:30,14826,14930,18415.0,16,18420.0,67,18415.0,18415.0,18410.0,18410.0,112,-39,18410,41,18415,63
2016-12-06 09:14:00,09:14:17,09:14:59,14979,15081,18410.0,57,18415.0,70,18415.0,18415.0,18415.0,18415.0,73,35,18415,24,18420,66
2016-12-06 09:15:00,09:15:05,09:15:59,15091,15322,18415.0,31,18420.0,62,18420.0,18420.0,18415.0,18420.0,218,-93,18420,20,18425,86
2016-12-06 09:16:00,09:16:05,09:16:57,15325,15476,18420.0,20,18425.0,86,18420.0,18425.0,18415.0,18415.0,126,-14,18415,77,18420,32
2016-12-06 09:17:00,09:17:01,09:17:55,15482,15639,18415.0,77,18420.0,33,18420.0,18425.0,18420.0,18425.0,163,-17,18425,9,18430,90
2016-12-06 09:18:00,09:18:02,09:18:59,15649,15801,18425.0,15,18430.0,90,18425.0,18425.0,18425.0,18425.0,101,-69,18425,4,18430,87
2016-12-06 09:19:00,09:19:00,09:19:58,15804,15988,18420.0,69,18425.0,2,18425.0,18425.0,18420.0,18420.0,141,-27,18420,5,18425,60
2016-12-06 09:20:00,09:20:08,09:20:42,15999,16080,18420.0,59,18425.0,60,18420.0,18425.0,18420.0,18425.0,96,2,18420,59,18430,87
2016-12-06 09:21:00,09:21:16,09:21:54,16126,16177,18425.0,70,18430.0,76,18430.0,18430.0,18425.0,18425.0,36,8,18425,38,18430,77
2016-12-06 09:22:00,09:22:06,09:22:46,16190,16321,18425.0,34,18430.0,80,18425.0,18430.0,18420.0,18420.0,97,-14,18415,82,18420,8
2016-12-06 09:23:00,09:23:02,09:23:59,16344,16497,18415.0,82,18420.0,21,18420.0,18425.0,18420.0,18420.0,138,88,18420,57,18425,68
2016-12-06 09:24:00,09:24:36,09:24:59,16534,16626,18420.0,54,18425.0,63,18420.0,18425.0,18420.0,18425.0,92,-20,18420,68,18425,5
2016-12-06 09:25:00,09:25:01,09:25:59,16632,16738,18420.0,65,18425.0,12,18425.0,18425.0,18420.0,18420.0,50,-4,18415,43,18420,43
2016-12-06 09:26:00,09:26:04,09:26:53,16752,16856,18415.0,76,18420.0,11,18420.0,18420.0,18420.0,18420.0,49,33,18415,70,18420,4
2016-12-06 09:27:00,09:27:00,09:27:59,16862,16993,18415.0,72,18420.0,2,18420.0,18420.0,18415.0,18415.0,72,-4,18410,62,18420,66
2016-12-06 09:28:00,09:28:08,09:28:43,17017,17119,18410.0,58,18415.0,6,18415.0,18415.0,18415.0,18415.0,54,15,18415,3,18420,68
2016-12-06 09:29:00,09:29:01,09:29:46,17154,17273,18415.0,42,18420.0,57,18420.0,18425.0,18420.0,18420.0,77,17,18420,16,18425,62
2016-12-06 09:30:00,09:30:00,09:30:53,17289,17350,18420.0,61,18425.0,28,18425.0,18425.0,18425.0,18425.0,39,30,18420,60,18425,33
2016-12-06 09:31:00,09:31:00,09:31:58,17354,17444,18420.0,59,18425.0,17,18425.0,18425.0,18425.0,18425.0,53,13,18425,56,18430,66
2016-12-06 09:32:00,09:32:54,09:32:59,17483,17507,18425.0,47,18430.0,67,18425.0,18425.0,18425.0,18425.0,31,-15,18425,4,18430,65
2016-12-06 09:33:00,09:33:04,09:33:21,17516,17543,18425.0,5,18430.0,66,18425.0,18425.0,18420.0,18425.0,13,-1,18420,50,18425,19
2016-12-06 09:34:00,09:34:15,09:34:42,17577,17638,18420.0,62,18425.0,13,18425.0,18425.0,18420.0,18425.0,40,-20,18420,60,18425,6
2016-12-06 09:35:00,09:35:01,09:35:58,17651,17812,18420.0,57,18425.0,27,18425.0,18435.0,18425.0,18435.0,152,94,18435,5,18435,9
2016-12-06 09:36:00,09:36:00,09:36:36,17815,17893,18430.0,60,18435.0,3,18435.0,18435.0,18435.0,18435.0,45,-3,18435,1,18440,61
2016-12-06 09:37:00,09:37:31,09:37:31,17918,17918,18435.0,46,18440.0,65,18435.0,18435.0,18435.0,18435.0,1,-1,18435,45,18440,64
2016-12-06 09:38:00,09:38:03,09:38:39,17938,18021,18435.0,52,18440.0,66,18435.0,18440.0,18435.0,18435.0,126,-46,18435,5,18440,61
2016-12-06 09:39:00,09:39:01,09:39:39,18034,18104,18435.0,29,18440.0,65,18435.0,18435.0,18435.0,18435.0,71,13,18430,71,18440,60
2016-12-06 09:40:00,09:40:15,09:40:59,18122,18244,18430.0,60,18435.0,67,18430.0,18430.0,18425.0,18425.0,137,-3,18420,65,18425,10
2016-12-06 09:41:00,09:41:21,09:41:52,18265,18403,18420.0,68,18425.0,7,18425.0,18425.0,18415.0,18415.0,169,-91,18410,43,18415,11
2016-12-06 09:42:00,09:42:21,09:42:52,18441,18605,18410.0,47,18415.0,32,18415.0,18425.0,18415.0,18420.0,231,171,18415,53,18420,9
2016-12-06 09:43:00,09:43:40,09:43:40,18632,18638,18415.0,61,18420.0,11,18420.0,18420.0,18420.0,18420.0,11,11,18420,55,18425,22
2016-12-06 09:44:00,09:44:00,09:44:00,0,0,0.0,0,0.0,0,18420.0,18420.0,18420.0,18420.0,0,0,0,0,0,0
2016-12-06 09:45:00,09:45:01,09:45:30,18694,18720,18420.0,64,18425.0,32,18420.0,18425.0,18420.0,18425.0,6,-2,18420,66,18425,18
2016-12-06 09:46:00,09:46:03,09:46:26,18738,18749,18420.0,66,18425.0,27,18420.0,18425.0,18420.0,18420.0,4,-2,18420,63,18425,26
2016-12-06 09:47:00,09:47:05,09:47:44,18778,18844,18420.0,65,18425.0,32,18420.0,18425.0,18420.0,18425.0,96,-30,18420,64,18425,20
2016-12-06 09:48:00,09:48:37,09:48:37,18878,18878,18420.0,67,18425.0,65,18425.0,18425.0,18425.0,18425.0,1,1,18420,68,18425,64
2016-12-06 09:49:00,09:49:04,09:49:51,18888,19022,18420.0,74,18425.0,67,18425.0,18425.0,18425.0,18425.0,129,9,18425,6,18430,60
2016-12-06 09:50:00,09:50:00,09:50:54,19028,19129,18425.0,11,18430.0,60,18430.0,18430.0,18425.0,18425.0,72,-44,18420,59,18425,4
2016-12-06 09:51:00,09:51:00,09:51:26,19134,19176,18420.0,59,18425.0,14,18425.0,18425.0,18425.0,18425.0,19,3,18420,62,18425,7
2016-12-06 09:52:00,09:52:06,09:52:34,19207,19271,18420.0,64,18425.0,24,18420.0,18420.0,18415.0,18415.0,36,-36,18415,48,18420,68
2016-12-06 09:53:00,09:53:07,09:53:59,19303,19416,18415.0,62,18420.0,75,18415.0,18415.0,18410.0,18410.0,75,-75,18405,73,18410,3
2016-12-06 09:54:00,09:54:21,09:54:53,19440,19467,18405.0,69,18410.0,33,18410.0,18410.0,18405.0,18410.0,12,8,18405,64,18410,56
2016-12-06 09:55:00,09:55:06,09:55:44,19479,19582,18405.0,64,18410.0,61,18405.0,18410.0,18405.0,18410.0,113,77,18405,68,18410,6
2016-12-06 09:56:00,09:56:00,09:56:50,19590,19737,18405.0,68,18410.0,15,18410.0,18410.0,18395.0,18395.0,124,-98,18395,73,18400,60
2016-12-06 09:57:00,09:57:00,09:57:43,19742,20112,18395.0,74,18400.0,67,18400.0,18400.0,18375.0,18375.0,507,-55,18370,53,18375,43
2016-12-06 09:58:00,09:58:00,09:58:53,20132,20414,18370.0,59,18375.0,38,18375.0,18375.0,18365.0,18370.0,350,56,18365,64,18370,7
2016-12-06 09:59:00,09:59:00,09:59:58,20424,20620,18365.0,58,18370.0,25,18370.0,18370.0,18355.0,18355.0,203,-179,18355,9,18360,78
2016-12-06 10:00:00,10:00:00,10:00:58,20627,20906,18355.0,22,18360.0,74,18360.0,18360.0,18345.0,18345.0,315,-103,18345,62,18350,124
2016-12-06 10:01:00,10:01:00,10:01:58,20911,21136,18345.0,65,18350.0,123,18345.0,18355.0,18345.0,18345.0,253,131,18345,76,18350,15
2016-12-06 10:02:00,10:02:12,10:02:58,21149,21458,18345.0,78,18350.0,32,18345.0,18350.0,18335.0,18350.0,389,-153,18350,59,18355,52
2016-12-06 10:03:00,10:03:03,10:03:57,21463,21672,18350.0,87,18355.0,48,18350.0,18355.0,18350.0,18350.0,204,-74,18350,49,18355,46
2016-12-06 10:04:00,10:04:00,10:04:58,21681,21896,18350.0,42,18355.0,80,18350.0,18355.0,18350.0,18350.0,188,-60,18350,16,18355,75
2016-12-06 10:05:00,10:05:01,10:05:52,21905,22030,18350.0,60,18355.0,37,18350.0,18355.0,18350.0,18350.0,81,19,18350,38,18355,45
2016-12-06 10:06:00,10:06:01,10:06:54,22044,22147,18350.0,27,18355.0,58,18350.0,18355.0,18350.0,18350.0,85,-55,18350,10,18355,51
2016-12-06 10:07:00,10:07:07,10:07:57,22163,22251,18350.0,20,18355.0,69,18350.0,18350.0,18345.0,18345.0,62,-14,18345,29,18350,78
2016-12-06 10:08:00,10:08:00,10:08:52,22256,22374,18345.0,37,18350.0,78,18345.0,18350.0,18340.0,18340.0,69,-67,18340,46,18345,51
2016-12-06 10:09:00,10:09:00,10:09:48,22388,22480,18340.0,47,18345.0,71,18345.0,18345.0,18340.0,18340.0,47,-1,18340,52,18345,75
2016-12-06 10:10:00,10:10:00,10:10:58,22493,22846,18340.0,44,18345.0,78,18340.0,18365.0,18340.0,18365.0,391,77,18360,72,18365,50
2016-12-06 10:11:00,10:11:14,10:11:58,22871,23027,18360.0,72,18365.0,56,18365.0,18365.0,18350.0,18350.0,164,-42,18350,50,18355,20
2016-12-06 10:12:00,10:12:16,10:12:55,23051,23210,18350.0,50,18355.0,60,18350.0,18350.0,18340.0,18345.0,145,-17,18340,48,18350,83
2016-12-06 10:13:00,10:13:00,10:13:59,23216,23401,18340.0,49,18350.0,85,18345.0,18345.0,18335.0,18335.0,155,82,18335,4,18340,46
2016-12-06 10:14:00,10:14:00,10:14:53,23404,23545,18335.0,5,18340.0,55,18335.0,18340.0,18330.0,18340.0,160,72,18340,40,18345,45
2016-12-06 10:15:00,10:15:00,10:15:38,23560,23642,18340.0,52,18345.0,30,18345.0,18350.0,18340.0,18350.0,32,22,18345,37,18350,48
2016-12-06 10:16:00,10:16:03,10:16:53,23665,23818,18345.0,46,18350.0,47,18350.0,18355.0,18350.0,18350.0,168,-92,18350,5,18355,56
2016-12-06 10:17:00,10:17:09,10:17:09,23841,23855,18350.0,35,18355.0,66,18350.0,18350.0,18350.0,18350.0,41,-41,18350,7,18355,62
2016-12-06 10:18:00,10:18:45,10:18:50,23938,23942,18350.0,55,18355.0,65,18350.0,18350.0,18350.0,18350.0,2,-2,18350,55,18355,63
2016-12-06 10:19:00,10:19:04,10:19:57,23952,24071,18350.0,61,18355.0,44,18350.0,18360.0,18350.0,18360.0,110,68,18355,68,18365,55
2016-12-06 10:20:00,10:20:04,10:20:33,24087,24179,18360.0,36,18365.0,61,18360.0,18365.0,18360.0,18365.0,52,35,18360,63,18365,12
2016-12-06 10:21:00,10:21:26,10:21:57,24236,24313,18360.0,61,18365.0,54,18360.0,18370.0,18360.0,18370.0,64,16,18365,12,18370,53
2016-12-06 10:22:00,10:22:08,10:22:50,24326,24386,18365.0,4,18370.0,56,18365.0,18365.0,18365.0,18365.0,22,0,18365,6,18370,57
2016-12-06 10:23:00,10:23:06,10:23:53,24402,24454,18365.0,35,18370.0,50,18365.0,18365.0,18365.0,18365.0,13,-13,18365,8,18370,60
2016-12-06 10:24:00,10:24:07,10:24:59,24466,24490,18365.0,39,18370.0,51,18365.0,18365.0,18365.0,18365.0,11,-11,18365,14,18370,60
2016-12-06 10:25:00,10:25:02,10:25:56,24498,24574,18365.0,36,18370.0,53,18365.0,18365.0,18365.0,18365.0,31,-17,18360,50,18365,29
2016-12-06 10:26:00,10:26:02,10:26:43,24585,24647,18360.0,52,18365.0,6,18365.0,18365.0,18360.0,18365.0,10,2,18360,47,18365,30
2016-12-06 10:27:00,10:27:05,10:27:54,24669,24751,18360.0,46,18365.0,55,18365.0,18365.0,18360.0,18360.0,54,-38,18360,21,18365,48
2016-12-06 10:28:00,10:28:10,10:28:52,24772,24873,18360.0,15,18365.0,54,18360.0,18370.0,18360.0,18370.0,100,15,18370,25,18375,46
2016-12-06 10:29:00,10:29:30,10:29:58,24916,25021,18370.0,59,18375.0,24,18375.0,18375.0,18370.0,18375.0,124,62,18370,51,18375,49
2016-12-06 10:30:00,10:30:01,10:30:54,25030,25097,18370.0,45,18375.0,56,18370.0,18370.0,18365.0,18365.0,78,-56,18360,54,18370,54
2016-12-06 10:31:00,10:31:16,10:31:32,25111,25137,18360.0,44,18365.0,27,18365.0,18365.0,18360.0,18365.0,14,-8,18360,58,18365,21
2016-12-06 10:32:00,10:32:07,10:32:46,25152,25213,18360.0,61,18365.0,24,18360.0,18365.0,18360.0,18365.0,45,-13,18365,8,18370,60
2016-12-06 10:33:00,10:33:50,10:33:50,25234,25242,18365.0,33,18370.0,59,18365.0,18370.0,18365.0,18370.0,20,6,18365,49,18370,38
2016-12-06 10:34:00,10:34:09,10:34:28,25263,25332,18365.0,39,18370.0,46,18365.0,18370.0,18365.0,18365.0,79,-19,18360,50,18365,15
2016-12-06 10:35:00,10:35:36,10:35:53,25364,25393,18360.0,42,18365.0,37,18360.0,18360.0,18355.0,18355.0,22,-22,18355,59,18360,18
2016-12-06 10:36:00,10:36:27,10:36:37,25409,25461,18355.0,55,18360.0,38,18355.0,18355.0,18355.0,18355.0,50,-8,18355,2,18360,44
2016-12-06 10:37:00,10:37:03,10:37:41,25491,25540,18355.0,23,18360.0,44,18360.0,18360.0,18350.0,18350.0,16,-14,18350,46,18355,11
2016-12-06 10:38:00,10:38:06,10:38:29,25549,25578,18350.0,50,18355.0,14,18350.0,18355.0,18350.0,18355.0,36,-14,18350,49,18355,1
2016-12-06 10:39:00,10:39:12,10:39:27,25596,25636,18350.0,47,18355.0,5,18355.0,18355.0,18355.0,18355.0,35,-17,18350,47,18360,45
2016-12-06 10:40:00,10:40:00,10:40:16,25652,25668,18355.0,42,18360.0,34,18355.0,18355.0,18355.0,18355.0,3,-3,18355,40,18360,38
2016-12-06 10:41:00,10:41:06,10:41:44,25702,25722,18355.0,42,18360.0,37,18355.0,18360.0,18355.0,18355.0,32,10,18355,24,18360,41
2016-12-06 10:42:00,10:42:07,10:42:46,25733,25767,18355.0,38,18360.0,35,18355.0,18355.0,18355.0,18355.0,32,-12,18355,9,18360,48
2016-12-06 10:43:00,10:43:08,10:43:54,25783,25895,18355.0,28,18360.0,46,18355.0,18360.0,18350.0,18360.0,94,-20,18355,51,18360,4
2016-12-06 10:44:00,10:44:02,10:44:55,25900,25979,18355.0,51,18360.0,2,18360.0,18370.0,18360.0,18370.0,55,3,18365,33,18370,39
2016-12-06 10:45:00,10:45:42,10:45:42,26003,26003,18365.0,34,18370.0,40,18365.0,18365.0,18365.0,18365.0,1,-1,18365,28,18370,41
2016-12-06 10:46:00,10:46:06,10:46:46,26019,26090,18365.0,28,18370.0,50,18365.0,18365.0,18355.0,18355.0,103,-87,18355,48,18360,8
2016-12-06 10:47:00,10:47:00,10:47:59,26097,26147,18355.0,50,18360.0,9,18360.0,18360.0,18355.0,18355.0,37,-5,18350,52,18355,32
2016-12-06 10:48:00,10:48:01,10:48:57,26153,26214,18350.0,41,18355.0,30,18355.0,18355.0,18355.0,18355.0,41,1,18350,52,18355,1
2016-12-06 10:49:00,10:49:51,10:49:51,26230,26234,18350.0,54,18355.0,12,18355.0,18355.0,18355.0,18355.0,9,9,18355,36,18360,47
2016-12-06 10:50:00,10:50:00,10:50:54,26247,26276,18355.0,32,18360.0,51,18355.0,18355.0,18355.0,18355.0,11,-11,18355,37,18360,38
2016-12-06 10:51:00,10:51:08,10:51:31,26284,26296,18355.0,42,18360.0,40,18355.0,18360.0,18355.0,18360.0,5,-1,18355,40,18360,35
2016-12-06 10:52:00,10:52:06,10:52:24,26312,26318,18355.0,38,18360.0,40,18355.0,18355.0,18355.0,18355.0,3,-3,18355,30,18360,48
2016-12-06 10:53:00,10:53:09,10:53:45,26336,26351,18355.0,33,18360.0,51,18355.0,18355.0,18355.0,18355.0,3,-3,18355,32,18360,42
2016-12-06 10:54:00,10:54:08,10:54:48,26361,26423,18355.0,28,18360.0,53,18355.0,18360.0,18355.0,18355.0,54,-12,18350,55,18355,9
2016-12-06 10:55:00,10:55:01,10:55:13,26427,26481,18350.0,55,18355.0,11,18350.0,18350.0,18345.0,18350.0,62,-46,18345,46,18350,29
2016-12-06 10:56:00,10:56:09,10:56:47,26494,26534,18345.0,49,18350.0,30,18345.0,18350.0,18345.0,18350.0,18,8,18345,50,18355,49
2016-12-06 10:57:00,10:57:09,10:57:53,26546,26573,18350.0,6,18355.0,51,18350.0,18350.0,18345.0,18345.0,7,-7,18345,49,18350,17
2016-12-06 10:58:00,10:58:04,10:58:04,26578,26579,18345.0,53,18350.0,32,18345.0,18345.0,18345.0,18345.0,2,-2,18345,49,18350,30
2016-12-06 10:59:00,10:59:01,10:59:31,26605,26664,18345.0,50,18350.0,30,18345.0,18350.0,18345.0,18350.0,53,9,18345,56,18350,6
2016-12-06 11:00:00,11:00:00,11:00:38,26681,26775,18345.0,57,18350.0,21,18350.0,18350.0,18345.0,18350.0,89,-15,18345,35,18350,19
2016-12-06 11:01:00,11:01:00,11:01:53,26795,26821,18345.0,40,18350.0,32,18350.0,18350.0,18345.0,18345.0,4,2,18345,44,18350,50
2016-12-06 11:02:00,11:02:06,11:02:06,26825,26826,18345.0,44,18350.0,49,18345.0,18345.0,18345.0,18345.0,2,-2,18345,42,18350,48
2016-12-06 11:03:00,11:03:00,11:03:12,26843,26853,18345.0,53,18350.0,45,18350.0,18350.0,18345.0,18345.0,5,-1,18345,51,18350,42
2016-12-06 11:04:00,11:04:00,11:04:41,26870,26941,18345.0,57,18350.0,41,18345.0,18355.0,18345.0,18355.0,71,7,18350,48,18360,47
2016-12-06 11:05:00,11:05:14,11:05:50,26962,27075,18355.0,35,18360.0,46,18355.0,18360.0,18355.0,18360.0,105,-13,18355,45,18360,5
2016-12-06 11:06:00,11:06:40,11:06:52,27106,27141,18355.0,60,18360.0,34,18360.0,18360.0,18360.0,18360.0,31,-9,18355,43,18360,5
2016-12-06 11:07:00,11:07:49,11:07:50,27152,27177,18355.0,36,18360.0,58,18355.0,18355.0,18355.0,18355.0,53,-53,18350,45,18355,3
2016-12-06 11:08:00,11:08:27,11:08:27,27191,27194,18350.0,41,18355.0,35,18350.0,18350.0,18350.0,18350.0,15,-15,18345,56,18350,28
2016-12-06 11:09:00,11:09:01,11:09:55,27207,27318,18345.0,56,18350.0,27,18345.0,18345.0,18340.0,18345.0,122,37,18345,60,18350,33
2016-12-06 11:10:00,11:10:29,11:10:54,27333,27371,18345.0,69,18350.0,55,18345.0,18345.0,18345.0,18345.0,50,-36,18340,51,18345,11
2016-12-06 11:11:00,11:11:02,11:11:53,27380,27560,18340.0,49,18345.0,25,18340.0,18345.0,18335.0,18335.0,227,-92,18335,22,18340,46
2016-12-06 11:12:00,11:12:09,11:12:09,27579,27594,18335.0,65,18340.0,42,18340.0,18340.0,18340.0,18340.0,35,35,18335,66,18340,3
2016-12-06 11:13:00,11:13:00,11:13:00,0,0,0.0,0,0.0,0,18340.0,18340.0,18340.0,18340.0,0,0,0,0,0,0
2016-12-06 11:14:00,11:14:03,11:14:57,27636,27698,18335.0,64,18340.0,35,18335.0,18335.0,18335.0,18335.0,48,-24,18335,8,18340,45
2016-12-06 11:15:00,11:15:46,11:15:49,27729,27753,18335.0,50,18340.0,28,18340.0,18340.0,18340.0,18340.0,34,-4,18335,48,18345,63
2016-12-06 11:16:00,11:16:11,11:16:59,27769,27832,18335.0,43,18340.0,39,18340.0,18340.0,18330.0,18330.0,58,-36,18325,50,18330,1
2016-12-06 11:17:00,11:17:01,11:17:49,27835,27898,18325.0,50,18330.0,1,18330.0,18340.0,18330.0,18340.0,55,53,18335,39,18340,18
2016-12-06 11:18:00,11:18:17,11:18:17,27919,27919,18335.0,16,18340.0,42,18335.0,18335.0,18335.0,18335.0,7,-7,18335,9,18340,44
2016-12-06 11:19:00,11:19:01,11:19:20,27942,27955,18335.0,28,18340.0,37,18335.0,18335.0,18335.0,18335.0,3,-3,18335,33,18340,32
2016-12-06 11:20:00,11:20:08,11:20:18,27982,28017,18335.0,26,18340.0,50,18335.0,18335.0,18335.0,18335.0,46,-46,18335,11,18340,46
2016-12-06 11:21:00,11:21:04,11:21:04,28030,28037,18335.0,25,18340.0,49,18335.0,18335.0,18335.0,18335.0,13,-13,18335,13,18340,53
2016-12-06 11:22:00,11:22:07,11:22:08,28067,28070,18335.0,28,18340.0,47,18335.0,18335.0,18335.0,18335.0,3,-3,18335,28,18340,44
2016-12-06 11:23:00,11:23:03,11:23:28,28087,28097,18335.0,37,18340.0,31,18335.0,18335.0,18335.0,18335.0,3,-3,18335,35,18340,32
2016-12-06 11:24:00,11:24:03,11:24:14,28104,28133,18335.0,34,18340.0,35,18335.0,18335.0,18335.0,18335.0,20,-10,18335,6,18340,40
2016-12-06 11:25:00,11:25:03,11:25:47,28156,28188,18335.0,37,18340.0,33,18340.0,18340.0,18335.0,18335.0,17,-15,18335,1,18340,45
2016-12-06 11:26:00,11:26:06,11:26:53,28206,28234,18335.0,25,18340.0,43,18335.0,18340.0,18335.0,18340.0,33,27,18335,57,18340,7
2016-12-06 11:27:00,11:27:04,11:27:05,28242,28244,18335.0,57,18340.0,20,18340.0,18340.0,18335.0,18335.0,2,0,18335,56,18340,17
2016-12-06 11:28:00,11:28:07,11:28:49,28272,28282,18335.0,56,18340.0,55,18335.0,18335.0,18335.0,18335.0,3,-3,18335,50,18340,52
2016-12-06 11:29:00,11:29:00,11:29:47,28289,28424,18335.0,52,18340.0,53,18340.0,18345.0,18340.0,18345.0,138,110,18340,30,18345,13
2016-12-06 11:30:00,11:30:00,11:30:59,28431,28857,18340.0,30,18345.0,15,18340.0,18340.0,18320.0,18320.0,462,-86,18315,59,18325,45
2016-12-06 11:31:00,11:31:09,11:31:53,28875,29099,18320.0,11,18325.0,48,18320.0,18330.0,18320.0,18330.0,236,-10,18330,30,18335,31
2016-12-06 11:32:00,11:32:01,11:32:59,29114,29224,18330.0,33,18335.0,42,18330.0,18335.0,18330.0,18330.0,122,-120,18330,9,18335,39
2016-12-06 11:33:00,11:33:05,11:33:51,29234,29548,18330.0,45,18335.0,34,18335.0,18345.0,18335.0,18345.0,466,356,18345,21,18350,43
2016-12-06 11:34:00,11:34:18,11:34:59,29582,29843,18345.0,56,18350.0,40,18350.0,18365.0,18350.0,18360.0,243,77,18355,57,18360,1
2016-12-06 11:35:00,11:35:05,11:35:59,29857,29999,18355.0,55,18360.0,25,18355.0,18360.0,18355.0,18355.0,92,-18,18350,45,18355,25
2016-12-06 11:36:00,11:36:00,11:36:58,30002,30232,18350.0,45,18355.0,25,18355.0,18365.0,18345.0,18345.0,209,-81,18345,8,18350,79
2016-12-06 11:37:00,11:37:06,11:37:50,30245,30311,18345.0,22,18350.0,77,18345.0,18345.0,18345.0,18345.0,46,-20,18340,55,18345,9
2016-12-06 11:38:00,11:38:00,11:38:59,30324,30489,18340.0,29,18345.0,43,18340.0,18360.0,18340.0,18360.0,152,40,18355,36,18360,20
2016-12-06 11:39:00,11:39:00,11:39:50,30493,30617,18355.0,36,18360.0,32,18360.0,18360.0,18360.0,18360.0,145,-77,18355,32,18360,37
2016-12-06 11:40:00,11:40:11,11:40:32,30651,30697,18355.0,10,18360.0,56,18355.0,18360.0,18355.0,18360.0,28,-4,18355,12,18360,57
2016-12-06 11:41:00,11:41:02,11:41:43,30720,30782,18355.0,13,18360.0,53,18355.0,18360.0,18355.0,18355.0,40,-12,18350,56,18360,52
2016-12-06 11:42:00,11:42:05,11:42:55,30799,30882,18350.0,47,18355.0,30,18355.0,18355.0,18355.0,18355.0,41,25,18355,6,18360,52
2016-12-06 11:43:00,11:43:18,11:43:59,30914,31005,18355.0,13,18360.0,56,18355.0,18355.0,18350.0,18355.0,52,-16,18355,2,18360,54
2016-12-06 11:44:00,11:44:01,11:44:49,31009,31455,18355.0,1,18360.0,54,18355.0,18390.0,18350.0,18380.0,919,583,18380,4,18385,40
2016-12-06 11:45:00,11:45:01,11:45:16,31477,31662,18380.0,57,18385.0,22,18385.0,18385.0,18375.0,18380.0,258,-56,18375,29,18380,58
2016-12-06 11:46:00,11:46:09,11:46:59,31685,31976,18375.0,90,18380.0,34,18380.0,18385.0,18375.0,18380.0,380,-32,18380,8,18380,18
2016-12-06 11:47:00,11:47:00,11:47:35,31978,32070,18375.0,62,18380.0,18,18380.0,18385.0,18380.0,18385.0,62,36,18380,71,18385,12
2016-12-06 11:48:00,11:48:00,11:48:43,32097,32218,18380.0,70,18385.0,51,18385.0,18385.0,18375.0,18375.0,121,-37,18375,33,18380,52
2016-12-06 11:49:00,11:49:00,11:49:50,32231,32449,18375.0,28,18380.0,51,18380.0,18385.0,18380.0,18380.0,195,33,18375,59,18380,2
2016-12-06 11:50:00,11:50:07,11:50:55,32470,32551,18375.0,42,18380.0,39,18375.0,18375.0,18375.0,18375.0,51,-1,18370,44,18375,30
2016-12-06 11:51:00,11:51:00,11:51:00,0,0,0.0,0,0.0,0,18375.0,18375.0,18375.0,18375.0,0,0,0,0,0,0
2016-12-06 11:52:00,11:52:07,11:52:43,32578,32731,18370.0,48,18375.0,39,18370.0,18380.0,18370.0,18380.0,144,-36,18380,11,18385,56
2016-12-06 11:53:00,11:53:05,11:53:59,32750,32911,18380.0,40,18385.0,49,18385.0,18385.0,18375.0,18375.0,125,-57,18370,43,18375,4
2016-12-06 11:54:00,11:54:00,11:54:55,32914,33018,18370.0,43,18375.0,4,18375.0,18375.0,18370.0,18375.0,70,-44,18375,10,18380,65
2016-12-06 11:55:00,11:55:04,11:55:49,33025,33165,18375.0,19,18380.0,62,18380.0,18385.0,18380.0,18385.0,116,32,18380,40,18385,16
2016-12-06 11:56:00,11:56:00,11:56:51,33181,33285,18380.0,33,18385.0,31,18385.0,18385.0,18375.0,18375.0,84,-76,18375,17,18380,44
2016-12-06 11:57:00,11:57:01,11:57:59,33291,33329,18375.0,18,18380.0,44,18380.0,18380.0,18375.0,18375.0,41,-39,18375,11,18380,49
2016-12-06 11:58:00,11:58:01,11:58:58,33333,33474,18375.0,14,18380.0,49,18375.0,18375.0,18365.0,18365.0,140,50,18365,15,18370,46
2016-12-06 11:59:00,11:59:04,11:59:43,33481,33588,18365.0,28,18370.0,46,18370.0,18370.0,18365.0,18365.0,96,42,18360,42,18370,56
2016-12-06 12:00:00,12:00:01,12:00:55,33611,33758,18360.0,42,18365.0,7,18365.0,18375.0,18365.0,18375.0,146,-58,18370,50,18380,40
2016-12-06 12:01:00,12:01:27,12:01:35,33805,33832,18375.0,50,18380.0,8,18380.0,18380.0,18375.0,18375.0,24,-10,18375,5,18380,54
2016-12-06 12:02:00,12:02:04,12:02:40,33861,33966,18375.0,6,18380.0,54,18375.0,18375.0,18365.0,18365.0,79,-39,18360,42,18370,56
2016-12-06 12:03:00,12:03:10,12:03:55,34000,34076,18365.0,31,18370.0,55,18365.0,18370.0,18365.0,18365.0,68,8,18365,11,18370,55
2016-12-06 12:04:00,12:04:04,12:04:45,34083,34150,18365.0,5,18370.0,55,18365.0,18370.0,18365.0,18370.0,63,3,18365,62,18370,4
2016-12-06 12:05:00,12:05:01,12:05:54,34175,34259,18365.0,23,18370.0,53,18365.0,18365.0,18360.0,18365.0,68,-14,18360,45,18365,15
2016-12-06 12:06:00,12:06:00,12:06:58,34267,34325,18360.0,46,18365.0,22,18365.0,18365.0,18365.0,18365.0,19,19,18365,29,18370,30
2016-12-06 12:07:00,12:07:03,12:07:34,34335,34421,18365.0,49,18370.0,13,18370.0,18375.0,18370.0,18375.0,101,19,18375,7,18380,48
2016-12-06 12:08:00,12:08:11,12:08:11,34441,34442,18375.0,9,18380.0,53,18375.0,18375.0,18375.0,18375.0,4,-4,18370,60,18375,6
2016-12-06 12:09:00,12:09:01,12:09:59,34481,34555,18370.0,52,18375.0,21,18370.0,18375.0,18370.0,18375.0,36,-32,18370,9,18375,49
2016-12-06 12:10:00,12:10:20,12:10:47,34569,34640,18370.0,46,18375.0,15,18375.0,18375.0,18370.0,18370.0,64,-36,18365,51,18375,54
2016-12-06 12:11:00,12:11:08,12:11:53,34665,34688,18370.0,24,18375.0,52,18370.0,18370.0,18370.0,18370.0,14,-14,18370,18,18375,57
2016-12-06 12:12:00,12:12:07,12:12:38,34694,34784,18370.0,27,18375.0,59,18370.0,18380.0,18370.0,18380.0,78,16,18380,7,18385,55
2016-12-06 12:13:00,12:13:00,12:13:36,34812,34881,18380.0,39,18385.0,39,18385.0,18385.0,18385.0,18385.0,52,35,18380,57,18385,4
2016-12-06 12:14:00,12:14:00,12:14:47,34899,35035,18380.0,56,18385.0,17,18385.0,18385.0,18380.0,18380.0,101,-5,18375,44,18380,6
2016-12-06 12:15:00,12:15:00,12:15:19,35050,35081,18375.0,49,18380.0,31,18375.0,18375.0,18375.0,18375.0,21,9,18370,47,18375,7
2016-12-06 12:16:00,12:16:00,12:16:00,0,0,0.0,0,0.0,0,18375.0,18375.0,18375.0,18375.0,0,0,0,0,0,0
2016-12-06 12:17:00,12:17:08,12:17:50,35132,35155,18370.0,52,18375.0,23,18370.0,18375.0,18370.0,18375.0,4,-2,18370,40,18375,34
2016-12-06 12:18:00,12:18:08,12:18:56,35166,35202,18370.0,44,18375.0,32,18370.0,18375.0,18370.0,18370.0,20,-18,18365,34,18370,18
2016-12-06 12:19:00,12:19:00,12:19:38,35211,35275,18365.0,42,18370.0,24,18365.0,18365.0,18360.0,18365.0,46,-16,18360,48,18365,27
2016-12-06 12:20:00,12:20:00,12:20:13,35283,35298,18360.0,48,18365.0,23,18365.0,18365.0,18360.0,18360.0,9,3,18360,45,18365,25
2016-12-06 12:21:00,12:21:11,12:21:25,35326,35334,18360.0,47,18365.0,30,18360.0,18360.0,18360.0,18360.0,2,-2,18360,46,18365,28
2016-12-06 12:22:00,12:22:06,12:22:59,35351,35476,18360.0,55,18365.0,31,18360.0,18360.0,18355.0,18360.0,127,-73,18355,45,18360,13
2016-12-06 12:23:00,12:23:12,12:23:26,35491,35534,18355.0,36,18360.0,38,18355.0,18355.0,18355.0,18355.0,38,-16,18350,54,18355,8
2016-12-06 12:24:00,12:24:05,12:24:56,35563,35629,18350.0,52,18355.0,17,18355.0,18355.0,18350.0,18350.0,69,1,18345,70,18350,2
2016-12-06 12:25:00,12:25:35,12:25:50,35649,35723,18345.0,72,18350.0,25,18350.0,18355.0,18350.0,18355.0,75,59,18355,18,18360,47
2016-12-06 12:26:00,12:26:04,12:26:49,35733,35805,18355.0,17,18360.0,50,18355.0,18360.0,18355.0,18360.0,41,-21,18355,47,18360,19
2016-12-06 12:27:00,12:27:01,12:27:59,35815,35897,18355.0,22,18360.0,44,18355.0,18360.0,18355.0,18360.0,55,7,18355,38,18360,9
2016-12-06 12:28:00,12:28:00,12:28:59,35900,35995,18355.0,38,18360.0,9,18360.0,18360.0,18360.0,18360.0,67,-8,18360,7,18365,49
2016-12-06 12:29:00,12:29:41,12:29:41,36019,36023,18360.0,16,18365.0,47,18360.0,18360.0,18360.0,18360.0,6,-6,18355,40,18360,28
2016-12-06 12:30:00,12:30:06,12:30:31,36041,36111,18355.0,40,18360.0,28,18355.0,18360.0,18355.0,18355.0,83,-13,18355,27,18360,40
2016-12-06 12:31:00,12:31:36,12:31:57,36133,36189,18355.0,30,18360.0,42,18360.0,18360.0,18360.0,18360.0,39,9,18360,1,18365,51
2016-12-06 12:32:00,12:32:01,12:32:54,36193,36290,18360.0,1,18365.0,52,18360.0,18360.0,18355.0,18355.0,47,-33,18355,9,18360,51
2016-12-06 12:33:00,12:33:03,12:33:38,36303,36323,18350.0,50,18355.0,9,18355.0,18355.0,18355.0,18355.0,9,7,18355,15,18360,44
2016-12-06 12:34:00,12:34:09,12:34:49,36340,36367,18355.0,23,18360.0,47,18355.0,18355.0,18355.0,18355.0,26,-26,18355,13,18360,57
2016-12-06 12:35:00,12:35:07,12:35:37,36373,36424,18355.0,10,18360.0,59,18355.0,18360.0,18355.0,18355.0,34,-4,18350,50,18360,54
2016-12-06 12:36:00,12:36:06,12:36:44,36441,36494,18355.0,12,18360.0,56,18355.0,18355.0,18345.0,18345.0,34,-34,18345,23,18350,71
2016-12-06 12:37:00,12:37:03,12:37:28,36505,36524,18345.0,20,18350.0,78,18345.0,18345.0,18345.0,18345.0,4,-4,18345,31,18350,73
2016-12-06 12:38:00,12:38:01,12:38:53,36543,36655,18345.0,30,18350.0,75,18345.0,18345.0,18345.0,18345.0,95,-9,18340,47,18345,28
2016-12-06 12:39:00,12:39:04,12:39:41,36665,36738,18340.0,48,18345.0,30,18345.0,18350.0,18345.0,18350.0,57,41,18345,57,18350,1
2016-12-06 12:40:00,12:40:02,12:40:53,36757,36826,18345.0,53,18350.0,19,18345.0,18345.0,18345.0,18345.0,108,-78,18340,44,18345,35
2016-12-06 12:41:00,12:41:34,12:41:44,36844,36889,18340.0,49,18345.0,35,18340.0,18345.0,18340.0,18345.0,51,5,18340,35,18345,59
2016-12-06 12:42:00,12:42:00,12:42:34,36904,36968,18340.0,47,18345.0,56,18345.0,18345.0,18345.0,18345.0,70,24,18340,83,18345,38
2016-12-06 12:43:00,12:43:30,12:43:48,37016,37103,18340.0,88,18345.0,59,18345.0,18360.0,18345.0,18355.0,129,105,18355,18,18360,46
2016-12-06 12:44:00,12:44:00,12:44:53,37119,37325,18355.0,26,18360.0,50,18360.0,18360.0,18350.0,18355.0,217,3,18350,50,18355,20
2016-12-06 12:45:00,12:45:00,12:45:42,37340,37405,18350.0,45,18355.0,24,18355.0,18355.0,18355.0,18355.0,35,29,18350,105,18355,4
2016-12-06 12:46:00,12:46:10,12:46:58,37431,37539,18350.0,98,18355.0,32,18350.0,18355.0,18350.0,18355.0,135,37,18355,9,18360,54
2016-12-06 12:47:00,12:47:09,12:47:50,37549,37635,18355.0,13,18360.0,54,18360.0,18360.0,18355.0,18360.0,50,-8,18355,23,18360,58
2016-12-06 12:48:00,12:48:23,12:48:41,37658,37697,18355.0,26,18360.0,60,18355.0,18360.0,18355.0,18360.0,33,21,18355,56,18360,5
2016-12-06 12:49:00,12:49:25,12:49:42,37735,37746,18355.0,40,18360.0,78,18360.0,18360.0,18360.0,18360.0,5,5,18355,60,18360,58
2016-12-06 12:50:00,12:50:05,12:50:56,37761,37867,18355.0,59,18360.0,63,18355.0,18360.0,18355.0,18360.0,110,8,18360,2,18365,83
2016-12-06 12:51:00,12:51:00,12:51:58,37874,37975,18360.0,2,18365.0,83,18360.0,18360.0,18355.0,18355.0,129,-127,18355,8,18360,83
2016-12-06 12:52:00,12:52:03,12:52:49,37980,38045,18355.0,11,18360.0,83,18355.0,18355.0,18355.0,18355.0,100,-15,18355,5,18360,85
2016-12-06 12:53:00,12:53:28,12:53:48,38079,38111,18355.0,53,18360.0,61,18355.0,18360.0,18355.0,18360.0,37,-33,18355,43,18360,62
2016-12-06 12:54:00,12:54:22,12:54:51,38118,38126,18355.0,44,18360.0,64,18360.0,18360.0,18360.0,18360.0,7,7,18355,44,18360,57
2016-12-06 12:55:00,12:55:02,12:55:40,38131,38193,18355.0,44,18360.0,57,18355.0,18355.0,18355.0,18355.0,75,-71,18355,2,18360,77
2016-12-06 12:56:00,12:56:03,12:56:52,38207,38309,18355.0,9,18360.0,79,18355.0,18355.0,18350.0,18350.0,124,-72,18350,40,18355,52
2016-12-06 12:57:00,12:57:44,12:57:44,38341,38341,18350.0,51,18355.0,48,18350.0,18350.0,18350.0,18350.0,1,-1,18350,50,18355,47
2016-12-06 12:58:00,12:58:02,12:58:55,38351,38436,18350.0,49,18355.0,53,18350.0,18355.0,18350.0,18350.0,133,55,18350,50,18355,65
2016-12-06 12:59:00,12:59:05,12:59:47,38444,38509,18350.0,52,18355.0,63,18350.0,18355.0,18350.0,18350.0,59,-51,18350,10,18355,65
2016-12-06 13:00:00,13:00:01,13:00:30,38527,38573,18350.0,41,18355.0,65,18355.0,18355.0,18355.0,18355.0,48,30,18355,16,18360,85
2016-12-06 13:01:00,13:01:06,13:01:54,38591,38664,18355.0,32,18360.0,88,18355.0,18360.0,18355.0,18355.0,79,13,18355,26,18360,81
2016-12-06 13:02:00,13:02:34,13:02:35,38691,38700,18355.0,34,18360.0,98,18360.0,18360.0,18355.0,18355.0,12,-2,18355,29,18360,92
2016-12-06 13:03:00,13:03:04,13:03:56,38714,38823,18355.0,32,18360.0,94,18355.0,18355.0,18355.0,18355.0,85,-79,18355,22,18360,93
2016-12-06 13:04:00,13:04:22,13:04:59,38834,38870,18355.0,27,18360.0,94,18355.0,18360.0,18355.0,18360.0,22,-10,18355,37,18360,90
2016-12-06 13:05:00,13:05:04,13:05:51,38876,38927,18355.0,70,18360.0,60,18355.0,18355.0,18355.0,18355.0,38,-38,18355,36,18360,86
2016-12-06 13:06:00,13:06:00,13:06:45,38935,39015,18355.0,41,18360.0,86,18360.0,18365.0,18355.0,18365.0,81,77,18360,63,18365,26
2016-12-06 13:07:00,13:07:09,13:07:29,39030,39061,18360.0,65,18365.0,20,18365.0,18365.0,18365.0,18365.0,33,-23,18360,60,18365,27
2016-12-06 13:08:00,13:08:20,13:08:22,39095,39118,18360.0,63,18365.0,27,18365.0,18370.0,18365.0,18370.0,26,8,18365,25,18370,49
2016-12-06 13:09:00,13:09:10,13:09:30,39155,39200,18365.0,31,18370.0,58,18370.0,18370.0,18365.0,18365.0,61,-27,18365,2,18370,73
2016-12-06 13:10:00,13:10:10,13:10:35,39242,39292,18365.0,34,18370.0,68,18365.0,18370.0,18365.0,18365.0,45,-29,18365,15,18370,73
2016-12-06 13:11:00,13:11:35,13:11:59,39342,39362,18365.0,46,18370.0,71,18370.0,18370.0,18365.0,18365.0,9,5,18365,24,18370,72
2016-12-06 13:12:00,13:12:00,13:12:57,39366,39509,18365.0,33,18370.0,72,18365.0,18375.0,18365.0,18365.0,161,-57,18365,14,18370,69
2016-12-06 13:13:00,13:13:00,13:13:50,39515,39606,18365.0,36,18370.0,68,18370.0,18370.0,18365.0,18365.0,66,-46,18365,16,18370,57
2016-12-06 13:14:00,13:14:01,13:14:54,39611,39702,18365.0,17,18370.0,59,18365.0,18365.0,18355.0,18355.0,92,-92,18350,68,18355,25
2016-12-06 13:15:00,13:15:05,13:15:55,39711,39801,18350.0,65,18355.0,37,18350.0,18360.0,18350.0,18360.0,88,62,18355,63,18360,46
2016-12-06 13:16:00,13:16:26,13:16:55,39815,39939,18355.0,26,18360.0,88,18355.0,18355.0,18350.0,18355.0,174,-88,18350,12,18355,42
2016-12-06 13:17:00,13:17:00,13:17:53,39950,40008,18350.0,57,18355.0,37,18355.0,18355.0,18345.0,18345.0,17,-9,18345,78,18350,19
2016-12-06 13:18:00,13:18:05,13:18:53,40019,40152,18345.0,78,18350.0,20,18345.0,18355.0,18345.0,18345.0,136,-74,18345,18,18350,74
2016-12-06 13:19:00,13:19:00,13:19:42,40156,40220,18345.0,22,18350.0,77,18350.0,18350.0,18350.0,18350.0,59,30,18345,67,18350,26
2016-12-06 13:20:00,13:20:09,13:20:55,40239,40317,18345.0,72,18350.0,11,18350.0,18350.0,18340.0,18350.0,112,-102,18345,15,18350,73
2016-12-06 13:21:00,13:21:04,13:21:53,40325,40448,18345.0,18,18350.0,72,18345.0,18350.0,18345.0,18350.0,112,24,18345,72,18350,4
2016-12-06 13:22:00,13:22:10,13:22:54,40465,40550,18345.0,70,18350.0,8,18350.0,18350.0,18345.0,18345.0,90,-18,18345,21,18350,46
2016-12-06 13:23:00,13:23:01,13:23:57,40558,40653,18345.0,26,18350.0,34,18350.0,18350.0,18350.0,18350.0,118,112,18345,74,18355,98
2016-12-06 13:24:00,13:24:08,13:24:46,40664,40703,18345.0,78,18350.0,10,18350.0,18350.0,18345.0,18350.0,29,27,18345,78,18355,96
2016-12-06 13:25:00,13:25:25,13:25:56,40747,40830,18345.0,77,18350.0,20,18350.0,18355.0,18350.0,18350.0,82,26,18345,77,18350,5
2016-12-06 13:26:00,13:26:21,13:26:21,40847,40875,18345.0,64,18350.0,27,18345.0,18345.0,18345.0,18345.0,47,-47,18340,101,18345,17
2016-12-06 13:27:00,13:27:02,13:27:58,40906,41095,18340.0,105,18345.0,21,18345.0,18350.0,18340.0,18345.0,224,18,18340,77,18345,2
2016-12-06 13:28:00,13:28:10,13:28:52,41108,41179,18340.0,75,18345.0,10,18345.0,18345.0,18340.0,18340.0,63,3,18340,58,18345,35
2016-12-06 13:29:00,13:29:12,13:29:56,41194,41282,18340.0,62,18345.0,34,18340.0,18345.0,18340.0,18340.0,90,-69,18340,10,18345,38
2016-12-06 13:30:00,13:30:06,13:30:44,41303,41433,18340.0,63,18345.0,49,18340.0,18345.0,18340.0,18340.0,151,13,18340,68,18345,25
2016-12-06 13:31:00,13:31:14,13:31:55,41460,41552,18340.0,79,18345.0,33,18340.0,18345.0,18335.0,18335.0,72,-62,18335,72,18340,38
2016-12-06 13:32:00,13:32:00,13:32:56,41563,41677,18335.0,76,18340.0,35,18335.0,18335.0,18330.0,18330.0,54,-42,18330,48,18335,39
2016-12-06 13:33:00,13:33:04,13:33:57,41690,41917,18330.0,51,18335.0,31,18330.0,18335.0,18325.0,18330.0,214,-84,18330,49,18340,45
2016-12-06 13:34:00,13:34:06,13:34:57,41921,42055,18330.0,52,18335.0,25,18335.0,18340.0,18335.0,18335.0,110,-16,18335,56,18340,25
2016-12-06 13:35:00,13:35:01,13:35:55,42063,42177,18335.0,58,18340.0,25,18335.0,18340.0,18330.0,18335.0,74,-32,18330,53,18340,75
2016-12-06 13:36:00,13:36:08,13:36:54,42201,42279,18330.0,53,18335.0,30,18330.0,18340.0,18330.0,18340.0,62,36,18340,65,18345,47
2016-12-06 13:37:00,13:37:13,13:37:59,42305,42537,18340.0,66,18345.0,47,18345.0,18350.0,18340.0,18345.0,276,127,18345,16,18350,70
2016-12-06 13:38:00,13:38:01,13:38:50,42542,42638,18345.0,9,18350.0,70,18345.0,18345.0,18340.0,18340.0,36,-6,18340,57,18345,33
2016-12-06 13:39:00,13:39:05,13:39:54,42653,42759,18340.0,49,18345.0,41,18345.0,18345.0,18335.0,18340.0,64,-32,18340,66,18345,38
2016-12-06 13:40:00,13:40:01,13:40:51,42762,42840,18340.0,66,18345.0,38,18340.0,18345.0,18340.0,18340.0,43,-5,18340,62,18345,46
2016-12-06 13:41:00,13:41:01,13:41:52,42848,42915,18340.0,66,18345.0,44,18345.0,18345.0,18340.0,18340.0,33,-5,18340,81,18345,53
2016-12-06 13:42:00,13:42:02,13:42:57,42927,43036,18340.0,84,18345.0,54,18340.0,18350.0,18340.0,18350.0,114,66,18345,79,18350,29
2016-12-06 13:43:00,13:43:00,13:43:59,43042,43203,18345.0,83,18350.0,28,18350.0,18360.0,18350.0,18360.0,133,103,18355,87,18360,19
2016-12-06 13:44:00,13:44:05,13:44:59,43214,43449,18355.0,86,18360.0,40,18355.0,18375.0,18350.0,18375.0,230,81,18375,18,18380,74
2016-12-06 13:45:00,13:45:00,13:45:55,43454,43712,18375.0,14,18380.0,80,18375.0,18375.0,18365.0,18375.0,345,-101,18370,46,18375,43
2016-12-06 13:46:00,13:46:00,13:46:57,43721,43979,18370.0,62,18375.0,50,18370.0,18380.0,18365.0,18380.0,234,62,18375,65,18380,18
2016-12-06 13:47:00,13:47:02,13:47:56,43993,44107,18375.0,53,18380.0,44,18375.0,18375.0,18370.0,18375.0,111,-15,18370,81,18375,23
2016-12-06 13:48:00,13:48:07,13:48:58,44123,44198,18370.0,84,18375.0,35,18370.0,18375.0,18370.0,18370.0,39,25,18370,80,18375,42
2016-12-06 13:49:00,13:49:07,13:49:50,44200,44336,18370.0,81,18375.0,42,18370.0,18375.0,18365.0,18365.0,105,-78,18365,1,18370,81
2016-12-06 13:50:00,13:50:00,13:50:59,44355,44590,18365.0,21,18370.0,87,18365.0,18365.0,18350.0,18355.0,239,-79,18355,64,18360,40
2016-12-06 13:51:00,13:51:09,13:51:57,44605,44666,18355.0,64,18360.0,37,18355.0,18360.0,18355.0,18355.0,13,-5,18355,66,18360,53
2016-12-06 13:52:00,13:52:01,13:52:51,44670,44789,18355.0,66,18360.0,56,18355.0,18355.0,18345.0,18345.0,60,-54,18345,43,18350,93
2016-12-06 13:53:00,13:53:00,13:53:52,44806,45125,18345.0,42,18350.0,97,18350.0,18350.0,18345.0,18350.0,360,143,18350,66,18355,28
2016-12-06 13:54:00,13:54:00,13:54:59,45133,45367,18350.0,61,18355.0,39,18355.0,18355.0,18345.0,18355.0,221,22,18350,81,18355,5
2016-12-06 13:55:00,13:55:00,13:55:51,45370,45560,18350.0,81,18355.0,5,18355.0,18355.0,18340.0,18345.0,134,-10,18345,35,18350,82
2016-12-06 13:56:00,13:56:00,13:56:56,45572,45754,18345.0,51,18350.0,74,18350.0,18355.0,18345.0,18350.0,146,36,18350,75,18355,71
2016-12-06 13:57:00,13:57:00,13:57:59,45762,45968,18350.0,71,18355.0,72,18355.0,18360.0,18350.0,18360.0,217,103,18355,104,18365,103
2016-12-06 13:58:00,13:58:04,13:58:52,45980,46110,18355.0,95,18360.0,10,18360.0,18365.0,18355.0,18360.0,119,28,18360,104,18365,69
2016-12-06 13:59:00,13:59:00,13:59:59,46125,46541,18360.0,91,18365.0,86,18360.0,18365.0,18350.0,18360.0,617,167,18365,46,18370,93
2016-12-06 14:00:00,14:00:00,14:00:58,46542,47133,18355.0,137,18365.0,140,18365.0,18385.0,18360.0,18380.0,1066,216,18380,1,18385,100
2016-12-06 14:01:00,14:01:00,14:01:52,47138,47613,18380.0,2,18385.0,100,18385.0,18395.0,18380.0,18390.0,678,225,18385,112,18390,39
2016-12-06 14:02:00,14:02:00,14:02:57,47630,48057,18385.0,106,18390.0,35,18390.0,18400.0,18385.0,18385.0,669,-219,18385,54,18390,40
2016-12-06 14:03:00,14:03:00,14:03:58,48069,48284,18385.0,78,18390.0,49,18390.0,18395.0,18390.0,18390.0,224,222,18390,93,18395,50
2016-12-06 14:04:00,14:04:00,14:04:58,48288,48420,18390.0,94,18395.0,50,18395.0,18400.0,18390.0,18400.0,135,105,18395,94,18400,122
2016-12-06 14:05:00,14:05:02,14:05:57,48430,48585,18395.0,86,18400.0,126,18400.0,18400.0,18390.0,18395.0,167,-73,18395,5,18400,142
2016-12-06 14:06:00,14:06:03,14:06:57,48592,48668,18395.0,20,18400.0,142,18400.0,18400.0,18395.0,18395.0,50,42,18395,62,18400,104
2016-12-06 14:07:00,14:07:06,14:07:51,48676,48798,18395.0,67,18400.0,105,18400.0,18405.0,18395.0,18405.0,195,125,18405,76,18410,63
2016-12-06 14:08:00,14:08:10,14:08:59,48824,48970,18405.0,82,18410.0,26,18410.0,18420.0,18410.0,18420.0,158,62,18415,47,18420,17
