,ST,ET,sidx,eidx,bB,bBS,bA,bAS,O,H,L,C,V,OF,eB,eBS,eA,eAS
2016-10-03 08:00:00,08:00:00,08:00:58,2760,3332,16580.0,19,16585.0,31,16580.0,16585.0,16545.0,16550.0,736,-306,16550,21,16555,40
2016-10-03 08:01:00,08:01:00,08:01:51,3341,3565,16550.0,17,16555.0,47,16550.0,16565.0,16550.0,16560.0,247,67,16555,19,16565,32
2016-10-03 08:02:00,08:02:00,08:02:56,3577,3855,16560.0,39,16565.0,45,16560.0,16570.0,16555.0,16570.0,334,116,16565,83,16570,33
2016-10-03 08:03:00,08:03:00,08:03:51,3866,4107,16565.0,75,16570.0,49,16570.0,16575.0,16570.0,16575.0,277,185,16570,23,16575,24
2016-10-03 08:04:00,08:04:03,08:04:57,4125,4297,16570.0,26,16575.0,27,16575.0,16575.0,16560.0,16560.0,154,-56,16560,24,16565,42
2016-10-03 08:05:00,08:05:03,08:05:56,4309,4461,16560.0,23,16565.0,42,16560.0,16560.0,16555.0,16555.0,167,-16,16550,56,16555,7
2016-10-03 08:06:00,08:06:03,08:06:59,4479,4686,16550.0,45,16555.0,63,16555.0,16570.0,16555.0,16570.0,211,129,16565,97,16570,32
2016-10-03 08:07:00,08:07:00,08:07:59,4689,4911,16565.0,97,16570.0,32,16570.0,16575.0,16565.0,16575.0,238,124,16570,43,16575,16
2016-10-03 08:08:00,08:08:02,08:08:59,4922,5080,16570.0,41,16575.0,41,16575.0,16585.0,16575.0,16585.0,129,124,16580,49,16585,22
2016-10-03 08:09:00,08:09:01,08:09:59,5083,5363,16580.0,49,16585.0,22,16585.0,16590.0,16580.0,16590.0,444,-86,16585,8,16590,56
2016-10-03 08:10:00,08:10:00,08:10:55,5364,5671,16585.0,4,16590.0,55,16585.0,16595.0,16580.0,16580.0,541,-35,16575,30,16580,47
2016-10-03 08:11:00,08:11:07,08:11:51,5696,5844,16575.0,130,16580.0,66,16580.0,16590.0,16580.0,16585.0,213,-55,16580,30,16585,17
2016-10-03 08:12:00,08:12:03,08:12:56,5866,5966,16580.0,43,16585.0,43,16585.0,16590.0,16585.0,16585.0,72,24,16580,73,16585,45
2016-10-03 08:13:00,08:13:02,08:13:57,5973,6098,16580.0,73,16585.0,45,16585.0,16585.0,16580.0,16585.0,80,46,16580,65,16585,12
2016-10-03 08:14:00,08:14:03,08:14:57,6105,6206,16580.0,72,16585.0,18,16585.0,16585.0,16580.0,16585.0,61,43,16580,60,16585,44
2016-10-03 08:15:00,08:15:01,08:15:52,6214,6331,16580.0,80,16585.0,36,16585.0,16590.0,16585.0,16585.0,58,52,16585,41,16590,49
2016-10-03 08:16:00,08:16:03,08:16:49,6336,6534,16585.0,37,16590.0,49,16585.0,16590.0,16585.0,16585.0,182,75,16580,129,16585,19
2016-10-03 08:17:00,08:17:05,08:17:49,6551,6705,16580.0,127,16585.0,42,16585.0,16590.0,16580.0,16580.0,354,-168,16575,34,16580,43
2016-10-03 08:18:00,08:18:00,08:18:59,6726,6901,16575.0,72,16580.0,47,16580.0,16585.0,16575.0,16575.0,222,-99,16575,14,16580,66
2016-10-03 08:19:00,08:19:00,08:19:54,6902,7065,16570.0,36,16580.0,46,16575.0,16575.0,16570.0,16570.0,225,3,16570,99,16575,102
2016-10-03 08:20:00,08:20:00,08:20:59,7071,7309,16570.0,96,16575.0,102,16575.0,16575.0,16570.0,16570.0,416,-186,16570,10,16575,80
2016-10-03 08:21:00,08:21:00,08:21:52,7314,7434,16565.0,45,16570.0,2,16570.0,16575.0,16570.0,16570.0,117,3,16570,90,16575,48
2016-10-03 08:22:00,08:22:01,08:22:59,7437,7571,16570.0,90,16575.0,48,16575.0,16575.0,16575.0,16575.0,151,91,16570,96,16575,10
2016-10-03 08:23:00,08:23:02,08:23:52,7574,7655,16570.0,96,16575.0,10,16575.0,16580.0,16575.0,16575.0,59,37,16575,57,16580,46
2016-10-03 08:24:00,08:24:00,08:24:54,7658,7798,16575.0,57,16580.0,46,16575.0,16575.0,16570.0,16575.0,117,-21,16570,49,16575,49
2016-10-03 08:25:00,08:25:01,08:25:58,7803,7911,16570.0,50,16575.0,51,16570.0,16580.0,16570.0,16575.0,88,22,16575,31,16580,78
2016-10-03 08:26:00,08:26:16,08:26:55,7934,7990,16575.0,36,16580.0,75,16575.0,16575.0,16575.0,16575.0,22,-22,16575,6,16580,88
2016-10-03 08:27:00,08:27:02,08:27:59,7999,8141,16575.0,8,16580.0,88,16575.0,16575.0,16575.0,16575.0,109,-51,16575,35,16580,86
2016-10-03 08:28:00,08:28:01,08:28:57,8147,8302,16575.0,11,16580.0,85,16575.0,16575.0,16555.0,16555.0,112,-90,16555,35,16560,17
2016-10-03 08:29:00,08:29:02,08:29:47,8314,8435,16555.0,34,16560.0,39,16560.0,16565.0,16560.0,16565.0,147,111,16565,47,16570,35
2016-10-03 08:30:00,08:30:02,08:30:46,8451,8522,16565.0,38,16570.0,39,16570.0,16570.0,16565.0,16570.0,62,26,16570,13,16575,24
2016-10-03 08:31:00,08:31:02,08:31:23,8538,8573,16570.0,42,16575.0,31,16575.0,16575.0,16570.0,16570.0,30,-24,16565,15,16570,61
2016-10-03 08:32:00,08:32:05,08:32:52,8608,8745,16565.0,18,16570.0,60,16565.0,16570.0,16565.0,16570.0,120,50,16565,45,16570,28
2016-10-03 08:33:00,08:33:01,08:33:48,8753,8884,16565.0,44,16570.0,25,16570.0,16590.0,16570.0,16585.0,194,162,16580,42,16585,18
2016-10-03 08:34:00,08:34:01,08:34:51,8898,9027,16580.0,42,16585.0,45,16585.0,16585.0,16580.0,16585.0,174,-74,16585,52,16590,30
2016-10-03 08:35:00,08:35:03,08:35:04,9040,9052,16585.0,49,16590.0,30,16590.0,16590.0,16585.0,16585.0,24,-20,16580,47,16585,21
2016-10-03 08:36:00,08:36:01,08:36:58,9112,9200,16580.0,47,16585.0,56,16585.0,16585.0,16575.0,16575.0,82,-70,16575,37,16580,39
2016-10-03 08:37:00,08:37:01,08:37:55,9204,9426,16575.0,37,16580.0,44,16580.0,16580.0,16575.0,16580.0,322,57,16575,29,16580,93
2016-10-03 08:38:00,08:38:35,08:38:35,9441,9441,16575.0,30,16580.0,97,16575.0,16575.0,16575.0,16575.0,2,-2,16575,28,16580,95
2016-10-03 08:39:00,08:39:03,08:39:48,9449,9471,16575.0,28,16580.0,99,16580.0,16580.0,16575.0,16575.0,20,-16,16575,23,16580,94
2016-10-03 08:40:00,08:40:04,08:40:51,9488,9534,16575.0,50,16580.0,90,16580.0,16580.0,16575.0,16580.0,54,48,16575,57,16580,46
2016-10-03 08:41:00,08:41:03,08:41:50,9547,9589,16575.0,63,16580.0,38,16580.0,16580.0,16575.0,16575.0,14,4,16575,41,16580,69
2016-10-03 08:42:00,08:42:00,08:42:54,9597,9686,16575.0,56,16580.0,68,16575.0,16580.0,16570.0,16575.0,79,-7,16575,42,16580,57
2016-10-03 08:43:00,08:43:00,08:43:28,9697,9722,16575.0,41,16580.0,59,16575.0,16580.0,16575.0,16575.0,5,-3,16575,50,16580,59
2016-10-03 08:44:00,08:44:06,08:44:43,9747,9870,16575.0,43,16580.0,73,16580.0,16580.0,16565.0,16565.0,173,-69,16560,39,16565,22
2016-10-03 08:45:00,08:45:03,08:45:56,9899,10073,16560.0,53,16565.0,28,16560.0,16565.0,16555.0,16560.0,180,-22,16560,32,16565,40
2016-10-03 08:46:00,08:46:02,08:46:58,10080,10207,16560.0,34,16565.0,40,16560.0,16560.0,16555.0,16555.0,95,-51,16555,17,16560,43
2016-10-03 08:47:00,08:47:05,08:47:32,10220,10270,16555.0,45,16560.0,26,16560.0,16565.0,16555.0,16565.0,81,77,16565,26,16570,53
2016-10-03 08:48:00,08:48:02,08:48:50,10290,10359,16565.0,45,16570.0,53,16570.0,16570.0,16565.0,16565.0,65,-59,16565,23,16570,41
2016-10-03 08:49:00,08:49:05,08:49:57,10369,10426,16565.0,14,16570.0,41,16565.0,16565.0,16565.0,16565.0,50,-18,16565,27,16570,41
2016-10-03 08:50:00,08:50:00,08:50:59,10434,10518,16565.0,28,16570.0,40,16570.0,16570.0,16565.0,16570.0,107,101,16570,6,16570,2
2016-10-03 08:51:00,08:51:00,08:51:52,10520,10629,16565.0,66,16570.0,2,16570.0,16570.0,16560.0,16565.0,103,-43,16560,61,16570,56
2016-10-03 08:52:00,08:52:00,08:52:32,10643,10717,16565.0,70,16570.0,47,16570.0,16575.0,16570.0,16575.0,71,63,16575,30,16580,103
2016-10-03 08:53:00,08:53:15,08:53:56,10742,10776,16575.0,57,16580.0,97,16575.0,16575.0,16575.0,16575.0,7,-7,16575,54,16580,97
2016-10-03 08:54:00,08:54:09,08:54:56,10783,10872,16575.0,59,16580.0,96,16580.0,16580.0,16575.0,16580.0,149,31,16580,3,16585,62
2016-10-03 08:55:00,08:55:01,08:55:32,10879,10916,16580.0,10,16585.0,61,16585.0,16585.0,16580.0,16580.0,9,3,16580,32,16585,60
2016-10-03 08:56:00,08:56:08,08:56:59,10947,11137,16580.0,42,16585.0,62,16585.0,16590.0,16580.0,16585.0,249,145,16580,46,16585,32
2016-10-03 08:57:00,08:57:11,08:57:55,11151,11250,16580.0,48,16585.0,49,16585.0,16585.0,16570.0,16570.0,175,-61,16570,38,16575,33
2016-10-03 08:58:00,08:58:01,08:58:50,11263,11407,16570.0,45,16575.0,25,16575.0,16575.0,16570.0,16575.0,98,13,16575,16,16580,52
2016-10-03 08:59:00,08:59:00,08:59:40,11425,11500,16575.0,23,16580.0,53,16575.0,16580.0,16575.0,16580.0,56,38,16580,48,16585,41
2016-10-03 09:00:00,09:00:00,09:00:56,11520,11618,16580.0,53,16585.0,41,16580.0,16585.0,16580.0,16585.0,79,63,16585,27,16590,29
2016-10-03 09:01:00,09:01:02,09:01:59,11625,11711,16585.0,26,16590.0,29,16590.0,16590.0,16590.0,16590.0,39,37,16590,35,16595,31
2016-10-03 09:02:00,09:02:02,09:02:51,11713,11925,16590.0,35,16595.0,27,16595.0,16600.0,16580.0,16580.0,255,67,16580,41,16585,38
2016-10-03 09:03:00,09:03:02,09:03:41,11937,12035,16580.0,50,16585.0,24,16585.0,16585.0,16575.0,16575.0,106,-80,16575,16,16580,42
2016-10-03 09:04:00,09:04:05,09:04:05,12053,12054,16575.0,27,16580.0,43,16575.0,16580.0,16575.0,16580.0,2,0,16575,35,16580,38
2016-10-03 09:05:00,09:05:00,09:05:46,12086,12133,16575.0,31,16580.0,39,16575.0,16580.0,16575.0,16575.0,22,-16,16570,42,16575,18
2016-10-03 09:06:00,09:06:04,09:06:59,12153,12247,16570.0,45,16575.0,22,16575.0,16575.0,16575.0,16575.0,73,-19,16570,46,16575,9
2016-10-03 09:07:00,09:07:00,09:07:43,12250,12300,16570.0,46,16575.0,9,16570.0,16580.0,16570.0,16580.0,19,3,16575,31,16580,37
2016-10-03 09:08:00,09:08:00,09:08:59,12309,12403,16575.0,35,16580.0,38,16575.0,16580.0,16575.0,16575.0,79,3,16570,42,16575,77
2016-10-03 09:09:00,09:09:00,09:09:57,12407,12468,16570.0,40,16575.0,77,16570.0,16575.0,16570.0,16575.0,21,15,16570,47,16575,20
2016-10-03 09:10:00,09:10:00,09:10:46,12472,12557,16570.0,47,16575.0,24,16570.0,16575.0,16570.0,16575.0,80,-2,16570,30,16575,11
2016-10-03 09:11:00,09:11:00,09:11:20,12572,12600,16570.0,32,16575.0,22,16570.0,16575.0,16570.0,16570.0,17,11,16570,31,16575,28
2016-10-03 09:12:00,09:12:00,09:12:52,12641,12816,16570.0,30,16575.0,39,16570.0,16585.0,16570.0,16585.0,209,94,16580,47,16585,11
2016-10-03 09:13:00,09:13:05,09:13:12,12844,12867,16580.0,52,16585.0,35,16580.0,16585.0,16580.0,16585.0,37,3,16580,37,16585,22
2016-10-03 09:14:00,09:14:02,09:14:59,12905,13267,16580.0,42,16585.0,14,16585.0,16615.0,16585.0,16615.0,455,425,16610,73,16615,150
2016-10-03 09:15:00,09:15:00,09:15:58,13272,13864,16610.0,116,16615.0,148,16610.0,16645.0,16610.0,16630.0,1078,712,16625,149,16630,54
2016-10-03 09:16:00,09:16:02,09:16:57,13873,14038,16625.0,149,16630.0,61,16625.0,16630.0,16620.0,16630.0,266,-84,16625,23,16630,53
2016-10-03 09:17:00,09:17:00,09:17:17,14044,14158,16625.0,37,16630.0,50,16625.0,16625.0,16625.0,16625.0,183,19,16620,58,16630,40
2016-10-03 09:18:00,09:18:00,09:18:58,14216,14363,16625.0,50,16630.0,18,16630.0,16630.0,16630.0,16630.0,152,78,16625,76,16630,16
2016-10-03 09:19:00,09:19:00,09:19:48,14368,14559,16625.0,76,16630.0,20,16630.0,16640.0,16630.0,16635.0,205,80,16635,24,16640,39
2016-10-03 09:20:00,09:20:02,09:20:58,14575,14722,16635.0,33,16640.0,52,16635.0,16640.0,16635.0,16635.0,148,0,16630,68,16635,53
2016-10-03 09:21:00,09:21:07,09:21:45,14737,14913,16630.0,72,16635.0,45,16630.0,16630.0,16620.0,16625.0,255,-133,16625,20,16630,80
2016-10-03 09:22:00,09:22:32,09:22:58,14967,15019,16625.0,38,16630.0,78,16630.0,16630.0,16630.0,16630.0,55,55,16625,65,16630,55
2016-10-03 09:23:00,09:23:00,09:23:33,15021,15113,16625.0,64,16630.0,55,16630.0,16635.0,16625.0,16630.0,67,43,16630,62,16635,57
2016-10-03 09:24:00,09:24:10,09:24:59,15152,15188,16630.0,49,16635.0,66,16635.0,16635.0,16635.0,16635.0,9,9,16630,60,16635,65
2016-10-03 09:25:00,09:25:03,09:25:55,15191,15315,16630.0,60,16635.0,65,16635.0,16635.0,16625.0,16625.0,113,-85,16620,54,16625,91
2016-10-03 09:26:00,09:26:09,09:26:59,15327,15449,16620.0,59,16625.0,91,16625.0,16625.0,16620.0,16620.0,163,-149,16615,145,16620,2
2016-10-03 09:27:00,09:27:00,09:27:51,15450,15598,16620.0,34,16625.0,61,16620.0,16625.0,16615.0,16625.0,198,-32,16620,51,16625,45
2016-10-03 09:28:00,09:28:01,09:28:51,15606,15671,16620.0,50,16625.0,53,16625.0,16625.0,16620.0,16620.0,42,-16,16615,117,16620,53
2016-10-03 09:29:00,09:29:02,09:29:52,15676,15805,16615.0,117,16620.0,57,16620.0,16625.0,16620.0,16625.0,170,26,16620,44,16625,56
2016-10-03 09:30:00,09:30:02,09:30:02,15812,15812,16620.0,48,16625.0,55,16625.0,16625.0,16625.0,16625.0,1,1,16620,49,16625,57
2016-10-03 09:31:00,09:31:01,09:31:58,15855,16373,16620.0,53,16625.0,65,16620.0,16635.0,16615.0,16620.0,695,-8,16620,16,16625,39
2016-10-03 09:32:00,09:32:00,09:32:59,16381,16593,16620.0,27,16625.0,36,16620.0,16630.0,16620.0,16625.0,242,194,16625,64,16630,68
2016-10-03 09:33:00,09:33:07,09:33:59,16599,16739,16625.0,70,16630.0,70,16625.0,16625.0,16615.0,16615.0,162,-132,16610,33,16615,3
2016-10-03 09:34:00,09:34:00,09:34:54,16743,16919,16610.0,33,16615.0,14,16615.0,16615.0,16605.0,16605.0,246,44,16605,47,16610,49
2016-10-03 09:35:00,09:35:02,09:35:54,16931,17099,16605.0,41,16610.0,62,16605.0,16605.0,16600.0,16605.0,181,-23,16605,6,16610,46
2016-10-03 09:36:00,09:36:10,09:36:58,17123,17341,16600.0,41,16605.0,38,16600.0,16600.0,16590.0,16595.0,246,-34,16590,32,16595,31
2016-10-03 09:37:00,09:37:07,09:37:54,17354,17571,16590.0,32,16595.0,36,16590.0,16590.0,16585.0,16590.0,229,-56,16585,40,16590,13
2016-10-03 09:38:00,09:38:04,09:38:39,17599,17684,16585.0,41,16590.0,5,16590.0,16595.0,16590.0,16595.0,83,15,16590,31,16595,26
2016-10-03 09:39:00,09:39:10,09:39:47,17709,17809,16590.0,26,16595.0,32,16590.0,16595.0,16590.0,16595.0,73,-41,16595,16,16600,48
2016-10-03 09:40:00,09:40:18,09:40:19,17833,17864,16595.0,40,16600.0,51,16600.0,16600.0,16600.0,16600.0,49,17,16600,13,16605,42
2016-10-03 09:41:00,09:41:37,09:41:37,17915,17915,16600.0,58,16605.0,39,16605.0,16605.0,16605.0,16605.0,1,1,16600,57,16605,41
2016-10-03 09:42:00,09:42:02,09:42:28,17925,17952,16600.0,57,16605.0,39,16605.0,16605.0,16605.0,16605.0,31,29,16605,18,16610,32
2016-10-03 09:43:00,09:43:05,09:43:43,17973,18074,16605.0,55,16610.0,34,16610.0,16615.0,16610.0,16615.0,156,154,16610,45,16615,23
2016-10-03 09:44:00,09:44:03,09:44:53,18088,18201,16610.0,41,16615.0,54,16610.0,16610.0,16600.0,16605.0,102,-20,16600,42,16605,12
2016-10-03 09:45:00,09:45:06,09:45:43,18214,18275,16600.0,36,16605.0,35,16600.0,16605.0,16600.0,16605.0,84,80,16605,3,16610,63
2016-10-03 09:46:00,09:46:06,09:46:48,18292,18314,16605.0,39,16610.0,60,16610.0,16615.0,16610.0,16615.0,42,42,16610,51,16615,25
2016-10-03 09:47:00,09:47:03,09:47:59,18334,18385,16610.0,54,16615.0,67,16615.0,16615.0,16610.0,16610.0,34,-28,16605,10,16610,72
2016-10-03 09:48:00,09:48:01,09:48:59,18396,18524,16605.0,14,16610.0,75,16605.0,16620.0,16605.0,16620.0,161,131,16615,50,16620,14
2016-10-03 09:49:00,09:49:02,09:49:39,18529,18571,16615.0,52,16620.0,13,16620.0,16620.0,16615.0,16615.0,39,-27,16610,40,16615,41
2016-10-03 09:50:00,09:50:00,09:50:45,18590,18651,16610.0,47,16615.0,28,16615.0,16620.0,16615.0,16615.0,30,28,16615,37,16620,30
2016-10-03 09:51:00,09:51:07,09:51:59,18670,18721,16615.0,41,16620.0,30,16620.0,16620.0,16615.0,16615.0,36,28,16615,46,16620,20
2016-10-03 09:52:00,09:52:02,09:52:43,18724,18832,16615.0,49,16620.0,22,16620.0,16625.0,16620.0,16625.0,70,32,16620,50,16625,39
2016-10-03 09:53:00,09:53:12,09:53:59,18853,18942,16620.0,57,16625.0,46,16620.0,16620.0,16620.0,16620.0,99,35,16615,48,16620,28
2016-10-03 09:54:00,09:54:00,09:54:01,18946,18968,16615.0,48,16620.0,32,16615.0,16615.0,16615.0,16615.0,38,-36,16610,43,16615,23
2016-10-03 09:55:00,09:55:01,09:55:58,18988,19098,16610.0,66,16615.0,22,16615.0,16625.0,16615.0,16625.0,95,83,16625,32,16630,41
2016-10-03 09:56:00,09:56:08,09:56:55,19113,19252,16625.0,25,16630.0,41,16630.0,16635.0,16625.0,16630.0,120,38,16630,28,16635,45
2016-10-03 09:57:00,09:57:03,09:57:54,19260,19458,16630.0,10,16635.0,48,16630.0,16630.0,16625.0,16625.0,256,-167,16620,53,16625,33
2016-10-03 09:58:00,09:58:09,09:58:49,19476,19562,16625.0,29,16630.0,73,16625.0,16625.0,16625.0,16625.0,85,-5,16625,2,16630,62
2016-10-03 09:59:00,09:59:28,09:59:50,19594,19633,16625.0,19,16630.0,65,16625.0,16625.0,16625.0,16625.0,22,-14,16625,25,16630,60
2016-10-03 10:00:00,10:00:30,10:00:58,19654,19779,16625.0,45,16630.0,62,16625.0,16630.0,16620.0,16625.0,191,-21,16625,11,16630,34
2016-10-03 10:01:00,10:01:01,10:01:42,19790,19837,16625.0,28,16630.0,31,16630.0,16630.0,16625.0,16630.0,23,-7,16625,38,16630,29
2016-10-03 10:02:00,10:02:08,10:02:53,19850,19887,16625.0,39,16630.0,31,16630.0,16630.0,16625.0,16625.0,31,-25,16620,29,16625,41
2016-10-03 10:03:00,10:03:09,10:03:50,19898,19915,16620.0,38,16625.0,46,16625.0,16625.0,16625.0,16625.0,4,4,16620,40,16625,31
2016-10-03 10:04:00,10:04:00,10:04:59,19918,20065,16620.0,40,16625.0,31,16625.0,16630.0,16625.0,16630.0,172,68,16630,11,16635,76
2016-10-03 10:05:00,10:05:00,10:05:29,20068,20113,16630.0,11,16635.0,76,16630.0,16635.0,16630.0,16630.0,53,-19,16625,49,16630,7
2016-10-03 10:06:00,10:06:00,10:06:00,0,0,0.0,0,0.0,0,16630.0,16630.0,16630.0,16630.0,0,0,0,0,0,0
2016-10-03 10:07:00,10:07:07,10:07:31,20159,20192,16625.0,45,16630.0,33,16630.0,16630.0,16630.0,16630.0,18,18,16625,73,16630,11
2016-10-03 10:08:00,10:08:03,10:08:56,20220,20290,16625.0,70,16630.0,35,16625.0,16625.0,16625.0,16625.0,55,-21,16620,36,16625,16
2016-10-03 10:09:00,10:09:04,10:09:55,20299,20354,16620.0,36,16625.0,28,16625.0,16625.0,16620.0,16625.0,46,28,16625,6,16630,37
2016-10-03 10:10:00,10:10:21,10:10:56,20372,20455,16625.0,31,16630.0,29,16630.0,16630.0,16625.0,16630.0,85,0,16625,42,16635,67
2016-10-03 10:11:00,10:11:47,10:11:47,20489,20489,16630.0,21,16635.0,64,16630.0,16630.0,16630.0,16630.0,1,-1,16630,23,16635,66
2016-10-03 10:12:00,10:12:08,10:12:56,20504,20541,16630.0,14,16635.0,75,16635.0,16635.0,16630.0,16630.0,13,-9,16625,24,16630,44
2016-10-03 10:13:00,10:13:53,10:13:59,20578,20622,16625.0,38,16630.0,47,16630.0,16635.0,16630.0,16635.0,96,96,16630,67,16635,8
2016-10-03 10:14:00,10:14:06,10:14:23,20628,20677,16630.0,69,16635.0,13,16635.0,16635.0,16630.0,16630.0,56,2,16625,34,16630,22
2016-10-03 10:15:00,10:15:00,10:15:41,20697,20799,16625.0,31,16630.0,37,16630.0,16630.0,16630.0,16630.0,70,18,16625,36,16630,19
2016-10-03 10:16:00,10:16:31,10:16:45,20827,20869,16625.0,42,16630.0,34,16630.0,16630.0,16630.0,16630.0,35,21,16630,29,16635,32
2016-10-03 10:17:00,10:17:02,10:17:14,20884,20910,16630.0,26,16635.0,33,16630.0,16630.0,16630.0,16630.0,39,-11,16630,31,16635,40
2016-10-03 10:18:00,10:18:02,10:18:59,20942,21045,16630.0,21,16635.0,38,16635.0,16635.0,16625.0,16625.0,98,-30,16620,94,16625,12
2016-10-03 10:19:00,10:19:00,10:19:59,21050,21103,16620.0,94,16625.0,4,16625.0,16625.0,16625.0,16625.0,14,14,16620,95,16625,11
2016-10-03 10:20:00,10:20:03,10:20:56,21107,21194,16620.0,98,16625.0,11,16625.0,16625.0,16625.0,16625.0,28,10,16620,108,16625,3
2016-10-03 10:21:00,10:21:00,10:21:56,21199,21289,16620.0,108,16625.0,3,16625.0,16630.0,16625.0,16630.0,78,38,16625,32,16630,26
2016-10-03 10:22:00,10:22:00,10:22:31,21293,21369,16625.0,31,16630.0,26,16630.0,16630.0,16630.0,16630.0,75,56,16625,46,16630,11
2016-10-03 10:23:00,10:23:05,10:23:16,21388,21394,16625.0,51,16630.0,15,16630.0,16630.0,16630.0,16630.0,6,6,16625,51,16630,8
2016-10-03 10:24:00,10:24:02,10:24:06,21410,21426,16625.0,54,16630.0,21,16625.0,16630.0,16625.0,16630.0,16,10,16625,42,16630,15
2016-10-03 10:25:00,10:25:04,10:25:11,21449,21479,16625.0,42,16630.0,28,16630.0,16630.0,16630.0,16630.0,29,29,16625,44,16630,16
2016-10-03 10:26:00,10:26:04,10:26:37,21497,21517,16625.0,43,16630.0,28,16630.0,16630.0,16625.0,16625.0,5,3,16625,62,16630,20
2016-10-03 10:27:00,10:27:06,10:27:45,21537,21633,16625.0,53,16630.0,21,16630.0,16630.0,16630.0,16630.0,97,-23,16630,23,16635,29
2016-10-03 10:28:00,10:28:55,10:28:59,21692,21698,16630.0,49,16635.0,32,16630.0,16630.0,16630.0,16630.0,4,-4,16630,54,16635,30
2016-10-03 10:29:00,10:29:02,10:29:58,21701,21829,16630.0,54,16635.0,30,16635.0,16635.0,16625.0,16625.0,89,-35,16625,42,16630,30
2016-10-03 10:30:00,10:30:08,10:30:54,21845,21908,16625.0,47,16630.0,27,16630.0,16630.0,16630.0,16630.0,44,39,16625,51,16630,18
2016-10-03 10:31:00,10:31:01,10:31:52,21916,22092,16625.0,50,16630.0,30,16625.0,16630.0,16625.0,16630.0,163,-116,16625,2,16630,45
2016-10-03 10:32:00,10:32:01,10:32:59,22101,22222,16625.0,24,16630.0,35,16625.0,16635.0,16625.0,16635.0,85,53,16635,1,16640,29
2016-10-03 10:33:00,10:33:00,10:33:54,22223,22322,16635.0,6,16640.0,28,16635.0,16640.0,16635.0,16635.0,64,11,16630,44,16635,22
2016-10-03 10:34:00,10:34:04,10:34:55,22335,22389,16630.0,44,16635.0,23,16635.0,16635.0,16635.0,16635.0,23,23,16630,47,16635,4
2016-10-03 10:35:00,10:35:03,10:35:59,22396,22488,16630.0,48,16635.0,5,16635.0,16640.0,16635.0,16640.0,60,58,16635,33,16640,12
2016-10-03 10:36:00,10:36:00,10:36:10,22491,22516,16635.0,33,16640.0,12,16640.0,16640.0,16640.0,16640.0,41,41,16635,32,16640,12
2016-10-03 10:37:00,10:37:13,10:37:18,22549,22553,16635.0,28,16640.0,32,16635.0,16635.0,16635.0,16635.0,4,-4,16635,26,16640,35
2016-10-03 10:38:00,10:38:40,10:38:40,22577,22577,16635.0,30,16640.0,36,16640.0,16640.0,16640.0,16640.0,2,2,16635,31,16640,30
2016-10-03 10:39:00,10:39:04,10:39:37,22584,22594,16635.0,28,16640.0,31,16640.0,16640.0,16635.0,16635.0,6,2,16635,29,16640,29
2016-10-03 10:40:00,10:40:07,10:40:07,22602,22609,16635.0,32,16640.0,29,16640.0,16640.0,16640.0,16640.0,7,7,16635,33,16640,22
2016-10-03 10:41:00,10:41:03,10:41:42,22629,22669,16635.0,31,16640.0,31,16640.0,16640.0,16635.0,16635.0,31,-13,16630,41,16635,16
2016-10-03 10:42:00,10:42:06,10:42:06,22674,22677,16630.0,42,16635.0,17,16630.0,16630.0,16630.0,16630.0,4,-4,16630,43,16635,19
2016-10-03 10:43:00,10:43:02,10:43:20,22686,22748,16630.0,45,16635.0,19,16635.0,16635.0,16630.0,16630.0,80,-66,16630,23,16635,57
2016-10-03 10:44:00,10:44:20,10:44:20,22768,22791,16630.0,32,16635.0,60,16630.0,16630.0,16630.0,16630.0,32,-16,16625,29,16630,11
2016-10-03 10:45:00,10:45:33,10:45:45,22807,22855,16625.0,29,16630.0,58,16630.0,16630.0,16630.0,16630.0,97,97,16630,26,16635,53
2016-10-03 10:46:00,10:46:35,10:46:50,22871,22928,16630.0,34,16635.0,55,16630.0,16630.0,16630.0,16630.0,59,-45,16630,7,16635,66
2016-10-03 10:47:00,10:47:01,10:47:19,22932,22953,16630.0,6,16635.0,66,16630.0,16630.0,16630.0,16630.0,14,-10,16625,31,16635,65
2016-10-03 10:48:00,10:48:00,10:48:00,0,0,0.0,0,0.0,0,16630.0,16630.0,16630.0,16630.0,0,0,0,0,0,0
2016-10-03 10:49:00,10:49:09,10:49:09,22988,22988,16625.0,36,16630.0,45,16630.0,16630.0,16630.0,16630.0,2,2,16625,35,16630,40
2016-10-03 10:50:00,10:50:03,10:50:33,23000,23008,16625.0,35,16630.0,41,16630.0,16630.0,16625.0,16625.0,3,1,16625,36,16630,40
2016-10-03 10:51:00,10:51:03,10:51:56,23015,23117,16625.0,36,16630.0,41,16625.0,16630.0,16620.0,16620.0,117,-107,16615,41,16620,21
2016-10-03 10:52:00,10:52:06,10:52:58,23131,23215,16615.0,43,16620.0,11,16620.0,16620.0,16620.0,16620.0,80,-58,16615,40,16620,4
2016-10-03 10:53:00,10:53:00,10:53:00,0,0,0.0,0,0.0,0,16620.0,16620.0,16620.0,16620.0,0,0,0,0,0,0
2016-10-03 10:54:00,10:54:08,10:54:51,23247,23260,16615.0,41,16620.0,28,16620.0,16620.0,16620.0,16620.0,3,3,16615,42,16620,23
2016-10-03 10:55:00,10:55:02,10:55:26,23266,23286,16615.0,42,16620.0,34,16620.0,16620.0,16620.0,16620.0,15,15,16615,45,16625,41
2016-10-03 10:56:00,10:56:37,10:56:37,23309,23309,16620.0,29,16625.0,39,16625.0,16625.0,16625.0,16625.0,2,2,16620,30,16625,38
2016-10-03 10:57:00,10:57:01,10:57:01,23317,23322,16620.0,18,16625.0,40,16620.0,16620.0,16620.0,16620.0,12,-12,16615,31,16620,34
2016-10-03 10:58:00,10:58:09,10:58:09,23344,23344,16615.0,43,16620.0,31,16620.0,16620.0,16620.0,16620.0,2,2,16615,41,16620,25
2016-10-03 10:59:00,10:59:08,10:59:36,23367,23394,16615.0,43,16620.0,28,16620.0,16620.0,16615.0,16615.0,19,-15,16615,27,16620,35
2016-10-03 11:00:00,11:00:02,11:00:57,23413,23451,16615.0,28,16620.0,41,16620.0,16620.0,16615.0,16620.0,5,3,16615,34,16620,37
2016-10-03 11:01:00,11:01:07,11:01:37,23460,23504,16615.0,38,16620.0,35,16620.0,16620.0,16620.0,16620.0,43,31,16615,46,16620,22
2016-10-03 11:02:00,11:02:08,11:02:58,23512,23545,16615.0,48,16620.0,27,16620.0,16625.0,16615.0,16625.0,13,9,16620,38,16625,30
2016-10-03 11:03:00,11:03:02,11:03:52,23554,23575,16620.0,40,16625.0,10,16625.0,16625.0,16620.0,16620.0,10,6,16620,34,16625,26
2016-10-03 11:04:00,11:04:03,11:04:59,23582,23650,16620.0,25,16625.0,27,16625.0,16625.0,16620.0,16625.0,56,-40,16620,25,16625,38
2016-10-03 11:05:00,11:05:05,11:05:10,23654,23660,16620.0,25,16625.0,39,16625.0,16625.0,16625.0,16625.0,3,3,16620,26,16625,35
2016-10-03 11:06:00,11:06:03,11:06:03,23677,23677,16620.0,31,16625.0,28,16625.0,16625.0,16625.0,16625.0,2,2,16620,32,16625,26
2016-10-03 11:07:00,11:07:02,11:07:05,23686,23689,16620.0,30,16625.0,32,16625.0,16625.0,16620.0,16620.0,3,1,16620,22,16625,38
2016-10-03 11:08:00,11:08:02,11:08:02,23716,23717,16620.0,29,16625.0,26,16625.0,16625.0,16625.0,16625.0,2,2,16620,31,16625,23
2016-10-03 11:09:00,11:09:03,11:09:03,23736,23736,16620.0,32,16625.0,33,16625.0,16625.0,16625.0,16625.0,2,2,16620,30,16625,30
2016-10-03 11:10:00,11:10:05,11:10:05,23752,23753,16620.0,33,16625.0,26,16625.0,16625.0,16625.0,16625.0,3,3,16620,31,16625,23
2016-10-03 11:11:00,11:11:02,11:11:02,23783,23783,16620.0,32,16625.0,29,16625.0,16625.0,16625.0,16625.0,2,2,16620,33,16625,22
2016-10-03 11:12:00,11:12:09,11:12:42,23800,23831,16620.0,34,16625.0,26,16625.0,16625.0,16625.0,16625.0,19,19,16625,13,16630,45
2016-10-03 11:13:00,11:13:07,11:13:51,23856,23897,16625.0,21,16630.0,49,16630.0,16630.0,16625.0,16630.0,18,-6,16625,16,16630,48
2016-10-03 11:14:00,11:14:01,11:14:31,23901,23913,16625.0,16,16630.0,47,16630.0,16630.0,16630.0,16630.0,4,4,16625,16,16630,50
2016-10-03 11:15:00,11:15:01,11:15:52,23918,23934,16625.0,17,16630.0,52,16630.0,16630.0,16630.0,16630.0,6,6,16625,23,16630,45
2016-10-03 11:16:00,11:16:00,11:16:43,23938,23960,16625.0,20,16630.0,45,16630.0,16630.0,16630.0,16630.0,9,9,16625,22,16630,45
2016-10-03 11:17:00,11:17:04,11:17:53,23970,23991,16625.0,22,16630.0,48,16630.0,16630.0,16630.0,16630.0,7,7,16625,21,16630,41
2016-10-03 11:18:00,11:18:01,11:18:01,23994,23995,16625.0,23,16630.0,44,16630.0,16630.0,16630.0,16630.0,2,2,16625,21,16630,42
2016-10-03 11:19:00,11:19:02,11:19:48,24011,24049,16625.0,20,16630.0,42,16630.0,16630.0,16625.0,16625.0,31,-27,16625,2,16630,41
2016-10-03 11:20:00,11:20:03,11:20:49,24056,24077,16625.0,17,16630.0,41,16630.0,16630.0,16630.0,16630.0,15,15,16625,28,16630,35
2016-10-03 11:21:00,11:21:04,11:21:44,24084,24113,16625.0,25,16630.0,38,16630.0,16630.0,16625.0,16630.0,21,-7,16625,20,16630,34
2016-10-03 11:22:00,11:22:37,11:22:37,24122,24126,16625.0,19,16630.0,37,16625.0,16625.0,16625.0,16625.0,8,-8,16625,2,16630,39
2016-10-03 11:23:00,11:23:05,11:23:07,24143,24159,16625.0,7,16630.0,38,16625.0,16625.0,16625.0,16625.0,13,-12,16620,39,16625,2
2016-10-03 11:24:00,11:24:02,11:24:27,24167,24215,16620.0,39,16625.0,21,16620.0,16620.0,16620.0,16620.0,45,-45,16620,44,16625,17
2016-10-03 11:25:00,11:25:01,11:25:40,24225,24253,16620.0,42,16625.0,20,16625.0,16625.0,16625.0,16625.0,20,20,16620,45,16630,37
2016-10-03 11:26:00,11:26:07,11:26:09,24267,24303,16620.0,44,16625.0,24,16625.0,16625.0,16620.0,16620.0,64,-44,16620,17,16625,29
2016-10-03 11:27:00,11:27:03,11:27:13,24316,24362,16620.0,38,16625.0,25,16620.0,16625.0,16620.0,16625.0,47,-23,16620,43,16625,12
2016-10-03 11:28:00,11:28:13,11:28:14,24393,24402,16620.0,46,16625.0,27,16625.0,16625.0,16625.0,16625.0,13,13,16620,45,16625,3
2016-10-03 11:29:00,11:29:03,11:29:43,24423,24497,16620.0,46,16625.0,6,16625.0,16625.0,16620.0,16625.0,45,-29,16620,34,16625,17
2016-10-03 11:30:00,11:30:00,11:30:59,24512,24630,16620.0,33,16625.0,18,16625.0,16630.0,16625.0,16625.0,81,19,16620,32,16625,3
2016-10-03 11:31:00,11:31:00,11:31:52,24634,24735,16620.0,32,16630.0,49,16625.0,16625.0,16615.0,16615.0,73,-52,16610,43,16615,6
2016-10-03 11:32:00,11:32:07,11:32:07,24754,24770,16610.0,38,16615.0,16,16615.0,16615.0,16615.0,16615.0,22,2,16610,47,16620,36
2016-10-03 11:33:00,11:33:18,11:33:50,24831,24924,16615.0,40,16620.0,12,16620.0,16620.0,16620.0,16620.0,91,-27,16620,9,16625,42
2016-10-03 11:34:00,11:34:02,11:34:36,24933,24981,16620.0,11,16625.0,44,16620.0,16620.0,16615.0,16615.0,34,-32,16610,36,16615,47
2016-10-03 11:35:00,11:35:12,11:35:27,25018,25046,16610.0,39,16615.0,50,16615.0,16615.0,16610.0,16615.0,22,18,16610,39,16615,31
2016-10-03 11:36:00,11:36:40,11:36:52,25100,25113,16610.0,42,16615.0,70,16615.0,16615.0,16610.0,16610.0,7,-3,16610,29,16615,72
2016-10-03 11:37:00,11:37:10,11:37:54,25131,25207,16610.0,53,16615.0,68,16610.0,16610.0,16610.0,16610.0,82,14,16610,20,16615,69
2016-10-03 11:38:00,11:38:00,11:38:00,0,0,0.0,0,0.0,0,16610.0,16610.0,16610.0,16610.0,0,0,0,0,0,0
2016-10-03 11:39:00,11:39:02,11:39:54,25268,25401,16610.0,53,16615.0,73,16610.0,16610.0,16605.0,16605.0,148,-59,16605,13,16610,57
2016-10-03 11:40:00,11:40:48,11:40:52,25447,25474,16605.0,21,16610.0,57,16605.0,16605.0,16605.0,16605.0,25,5,16600,77,16605,14
2016-10-03 11:41:00,11:41:13,11:41:54,25496,25585,16600.0,75,16605.0,29,16605.0,16605.0,16605.0,16605.0,74,58,16600,74,16605,16
2016-10-03 11:42:00,11:42:06,11:42:49,25597,25673,16600.0,67,16605.0,27,16605.0,16605.0,16605.0,16605.0,27,27,16600,77,16605,23
2016-10-03 11:43:00,11:43:05,11:43:15,25692,25770,16600.0,77,16605.0,40,16605.0,16605.0,16600.0,16600.0,135,-71,16600,28,16605,43
2016-10-03 11:44:00,11:44:43,11:44:52,25822,25835,16600.0,50,16605.0,25,16605.0,16605.0,16605.0,16605.0,17,17,16600,39,16605,26
2016-10-03 11:45:00,11:45:32,11:45:32,25860,25865,16600.0,49,16605.0,21,16605.0,16605.0,16605.0,16605.0,13,13,16605,35,16610,51
2016-10-03 11:46:00,11:46:04,11:46:40,25894,25904,16605.0,53,16610.0,58,16605.0,16610.0,16605.0,16610.0,3,1,16605,49,16610,55
2016-10-03 11:47:00,11:47:55,11:47:57,25944,25983,16605.0,84,16610.0,58,16610.0,16610.0,16610.0,16610.0,68,68,16605,91,16610,16
2016-10-03 11:48:00,11:48:04,11:48:56,25988,26133,16605.0,91,16610.0,20,16610.0,16610.0,16600.0,16600.0,150,-76,16595,61,16600,29
2016-10-03 11:49:00,11:49:22,11:49:22,26155,26155,16595.0,60,16600.0,45,16600.0,16600.0,16600.0,16600.0,1,1,16595,62,16600,43
2016-10-03 11:50:00,11:50:56,11:50:56,26203,26224,16595.0,69,16600.0,35,16595.0,16595.0,16595.0,16595.0,61,-61,16590,27,16595,39
2016-10-03 11:51:00,11:51:14,11:51:33,26246,26384,16590.0,42,16595.0,49,16595.0,16595.0,16585.0,16595.0,204,-29,16590,51,16595,17
2016-10-03 11:52:00,11:52:03,11:52:52,26421,26514,16590.0,60,16595.0,37,16590.0,16595.0,16590.0,16595.0,75,-13,16590,64,16595,22
2016-10-03 11:53:00,11:53:14,11:53:51,26534,26599,16590.0,75,16595.0,61,16590.0,16595.0,16590.0,16595.0,49,35,16595,30,16600,38
2016-10-03 11:54:00,11:54:01,11:54:52,26616,26754,16595.0,27,16600.0,54,16595.0,16595.0,16595.0,16595.0,148,-58,16590,53,16595,46
2016-10-03 11:55:00,11:55:00,11:55:00,0,0,0.0,0,0.0,0,16595.0,16595.0,16595.0,16595.0,0,0,0,0,0,0
2016-10-03 11:56:00,11:56:00,11:56:00,0,0,0.0,0,0.0,0,16595.0,16595.0,16595.0,16595.0,0,0,0,0,0,0
2016-10-03 11:57:00,11:57:00,11:57:02,26833,26881,16590.0,39,16595.0,63,16590.0,16590.0,16585.0,16590.0,83,-3,16590,5,16595,62
2016-10-03 11:58:00,11:58:00,11:58:58,26905,27098,16590.0,44,16595.0,57,16595.0,16605.0,16595.0,16600.0,303,37,16595,44,16600,50
2016-10-03 11:59:00,11:59:03,11:59:57,27107,27284,16595.0,56,16600.0,44,16595.0,16600.0,16595.0,16595.0,203,-30,16590,39,16600,68
2016-10-03 12:00:00,12:00:00,12:00:20,27290,27337,16595.0,1,16600.0,70,16595.0,16600.0,16595.0,16600.0,36,30,16595,43,16600,16
2016-10-03 12:01:00,12:01:00,12:01:00,0,0,0.0,0,0.0,0,16600.0,16600.0,16600.0,16600.0,0,0,0,0,0,0
2016-10-03 12:02:00,12:02:04,12:02:52,27415,27493,16595.0,39,16600.0,48,16600.0,16600.0,16595.0,16595.0,97,-79,16595,8,16600,59
2016-10-03 12:03:00,12:03:06,12:03:47,27507,27530,16595.0,28,16600.0,58,16595.0,16595.0,16595.0,16595.0,5,-5,16595,29,16600,46
2016-10-03 12:04:00,12:04:00,12:04:00,0,0,0.0,0,0.0,0,16595.0,16595.0,16595.0,16595.0,0,0,0,0,0,0
2016-10-03 12:05:00,12:05:27,12:05:27,27595,27607,16595.0,50,16600.0,47,16600.0,16600.0,16600.0,16600.0,21,21,16600,31,16605,38
2016-10-03 12:06:00,12:06:04,12:06:59,27649,27690,16600.0,57,16605.0,36,16605.0,16605.0,16605.0,16605.0,6,6,16600,54,16605,33
2016-10-03 12:07:00,12:07:01,12:07:53,27695,27779,16600.0,53,16605.0,34,16600.0,16600.0,16595.0,16595.0,72,-52,16595,27,16600,59
2016-10-03 12:08:00,12:08:46,12:08:46,27806,27812,16595.0,24,16600.0,54,16595.0,16595.0,16595.0,16595.0,10,-10,16595,16,16600,55
2016-10-03 12:09:00,12:09:00,12:09:00,27820,27820,16595.0,28,16600.0,52,16600.0,16600.0,16600.0,16600.0,1,1,16595,30,16600,51
2016-10-03 12:10:00,12:10:01,12:10:02,27864,27867,16595.0,27,16600.0,61,16600.0,16600.0,16600.0,16600.0,2,2,16595,24,16600,59
2016-10-03 12:11:00,12:11:29,12:11:41,27891,27900,16595.0,46,16600.0,51,16600.0,16600.0,16595.0,16595.0,3,1,16595,39,16600,53
2016-10-03 12:12:00,12:12:26,12:12:26,27918,27922,16595.0,34,16600.0,56,16595.0,16595.0,16595.0,16595.0,7,-7,16595,25,16600,57
2016-10-03 12:13:00,12:13:00,12:13:00,0,0,0.0,0,0.0,0,16595.0,16595.0,16595.0,16595.0,0,0,0,0,0,0
2016-10-03 12:14:00,12:14:03,12:14:27,27950,27956,16595.0,50,16600.0,50,16595.0,16600.0,16595.0,16600.0,5,-3,16595,49,16600,49
2016-10-03 12:15:00,12:15:48,12:15:57,27990,28036,16595.0,44,16600.0,52,16595.0,16595.0,16590.0,16590.0,78,16,16590,69,16600,65
2016-10-03 12:16:00,12:16:00,12:16:33,28039,28118,16590.0,69,16600.0,65,16595.0,16600.0,16595.0,16600.0,107,95,16595,71,16600,30
2016-10-03 12:17:00,12:17:21,12:17:56,28127,28164,16595.0,70,16600.0,21,16600.0,16600.0,16600.0,16600.0,44,40,16595,72,16605,43
2016-10-03 12:18:00,12:18:00,12:18:22,28166,28183,16595.0,71,16605.0,43,16600.0,16600.0,16600.0,16600.0,22,20,16595,74,16600,3
2016-10-03 12:19:00,12:19:22,12:19:36,28206,28222,16595.0,75,16600.0,31,16600.0,16600.0,16600.0,16600.0,25,21,16595,76,16605,53
2016-10-03 12:20:00,12:20:15,12:20:58,28233,28352,16595.0,75,16600.0,8,16595.0,16600.0,16595.0,16600.0,159,-77,16595,60,16600,17
2016-10-03 12:21:00,12:21:07,12:21:30,28370,28413,16595.0,63,16600.0,25,16600.0,16605.0,16600.0,16605.0,37,37,16600,72,16610,47
2016-10-03 12:22:00,12:22:00,12:22:00,0,0,0.0,0,0.0,0,16605.0,16605.0,16605.0,16605.0,0,0,0,0,0,0
2016-10-03 12:23:00,12:23:11,12:23:58,28463,28537,16600.0,78,16605.0,37,16600.0,16605.0,16600.0,16605.0,53,23,16600,58,16605,1
2016-10-03 12:24:00,12:24:00,12:24:30,28539,28620,16600.0,58,16605.0,2,16605.0,16615.0,16605.0,16610.0,100,18,16605,29,16610,52
2016-10-03 12:25:00,12:25:32,12:25:58,28652,28670,16605.0,54,16610.0,32,16605.0,16610.0,16605.0,16610.0,12,5,16610,2,16615,83
2016-10-03 12:26:00,12:26:00,12:26:57,28675,28758,16605.0,65,16615.0,86,16610.0,16610.0,16605.0,16605.0,94,-2,16600,38,16605,34
2016-10-03 12:27:00,12:27:12,12:27:59,28768,28868,16600.0,47,16605.0,25,16605.0,16610.0,16605.0,16610.0,84,65,16610,4,16615,82
2016-10-03 12:28:00,12:28:05,12:28:53,28884,28917,16610.0,8,16615.0,81,16610.0,16610.0,16605.0,16605.0,32,10,16605,63,16610,25
2016-10-03 12:29:00,12:29:20,12:29:20,28923,28939,16605.0,62,16610.0,27,16610.0,16610.0,16610.0,16610.0,21,21,16610,10,16615,78
2016-10-03 12:30:00,12:30:34,12:30:50,28979,29036,16610.0,57,16615.0,67,16610.0,16610.0,16610.0,16610.0,62,-60,16605,36,16610,65
2016-10-03 12:31:00,12:31:10,12:31:30,29049,29201,16605.0,26,16610.0,66,16605.0,16605.0,16595.0,16595.0,229,-20,16590,46,16600,50
2016-10-03 12:32:00,12:32:42,12:32:49,29232,29256,16590.0,47,16595.0,30,16595.0,16595.0,16595.0,16595.0,24,22,16595,33,16600,42
2016-10-03 12:33:00,12:33:01,12:33:57,29265,29305,16595.0,33,16600.0,42,16595.0,16600.0,16595.0,16595.0,27,-21,16590,32,16595,20
2016-10-03 12:34:00,12:34:04,12:34:32,29312,29368,16590.0,33,16595.0,24,16595.0,16595.0,16595.0,16595.0,47,5,16590,41,16600,45
2016-10-03 12:35:00,12:35:00,12:35:00,0,0,0.0,0,0.0,0,16595.0,16595.0,16595.0,16595.0,0,0,0,0,0,0
2016-10-03 12:36:00,12:36:00,12:36:00,0,0,0.0,0,0.0,0,16595.0,16595.0,16595.0,16595.0,0,0,0,0,0,0
2016-10-03 12:37:00,12:37:35,12:37:59,29435,29483,16595.0,22,16600.0,53,16595.0,16595.0,16595.0,16595.0,58,-20,16595,4,16600,54
2016-10-03 12:38:00,12:38:02,12:38:29,29486,29542,16595.0,4,16600.0,54,16595.0,16595.0,16590.0,16590.0,48,-36,16590,18,16595,40
2016-10-03 12:39:00,12:39:00,12:39:00,0,0,0.0,0,0.0,0,16590.0,16590.0,16590.0,16590.0,0,0,0,0,0,0
2016-10-03 12:40:00,12:40:16,12:40:57,29597,29648,16590.0,22,16595.0,36,16590.0,16590.0,16585.0,16585.0,17,-17,16585,12,16590,56
2016-10-03 12:41:00,12:41:04,12:41:05,29656,29668,16585.0,14,16590.0,57,16585.0,16585.0,16585.0,16585.0,13,-12,16580,77,16590,56
2016-10-03 12:42:00,12:42:42,12:42:42,29736,29736,16585.0,24,16590.0,50,16585.0,16585.0,16585.0,16585.0,1,-1,16585,23,16590,53
2016-10-03 12:43:00,12:43:09,12:43:56,29757,29811,16585.0,33,16590.0,35,16590.0,16590.0,16590.0,16590.0,54,-2,16585,36,16590,15
2016-10-03 12:44:00,12:44:00,12:44:00,0,0,0.0,0,0.0,0,16590.0,16590.0,16590.0,16590.0,0,0,0,0,0,0
2016-10-03 12:45:00,12:45:00,12:45:00,0,0,0.0,0,0.0,0,16590.0,16590.0,16590.0,16590.0,0,0,0,0,0,0
2016-10-03 12:46:00,12:46:13,12:46:13,29890,29890,16585.0,63,16590.0,38,16590.0,16590.0,16590.0,16590.0,1,1,16585,58,16590,35
2016-10-03 12:47:00,12:47:51,12:47:57,29933,30001,16585.0,59,16590.0,40,16585.0,16585.0,16575.0,16575.0,152,-152,16575,48,16580,66
2016-10-03 12:48:00,12:48:05,12:48:49,30016,30186,16575.0,45,16580.0,90,16575.0,16575.0,16570.0,16570.0,242,-194,16565,42,16570,5
2016-10-03 12:49:00,12:49:07,12:49:39,30221,30282,16565.0,44,16570.0,65,16570.0,16570.0,16565.0,16570.0,61,53,16570,36,16575,25
2016-10-03 12:50:00,12:50:29,12:50:29,30331,30333,16570.0,50,16575.0,35,16575.0,16575.0,16575.0,16575.0,4,4,16570,54,16575,34
2016-10-03 12:51:00,12:51:00,12:51:00,0,0,0.0,0,0.0,0,16575.0,16575.0,16575.0,16575.0,0,0,0,0,0,0
2016-10-03 12:52:00,12:52:50,12:52:50,30424,30424,16570.0,42,16575.0,45,16575.0,16575.0,16575.0,16575.0,1,1,16570,43,16575,41
2016-10-03 12:53:00,12:53:00,12:53:00,0,0,0.0,0,0.0,0,16575.0,16575.0,16575.0,16575.0,0,0,0,0,0,0
2016-10-03 12:54:00,12:54:20,12:54:22,30472,30476,16570.0,41,16575.0,50,16570.0,16570.0,16570.0,16570.0,2,-2,16570,37,16575,49
2016-10-03 12:55:00,12:55:00,12:55:00,0,0,0.0,0,0.0,0,16570.0,16570.0,16570.0,16570.0,0,0,0,0,0,0
2016-10-03 12:56:00,12:56:29,12:56:52,30521,30699,16570.0,38,16575.0,57,16575.0,16580.0,16575.0,16575.0,200,73,16570,40,16575,23
2016-10-03 12:57:00,12:57:00,12:57:00,0,0,0.0,0,0.0,0,16575.0,16575.0,16575.0,16575.0,0,0,0,0,0,0
2016-10-03 12:58:00,12:58:00,12:58:00,0,0,0.0,0,0.0,0,16575.0,16575.0,16575.0,16575.0,0,0,0,0,0,0
2016-10-03 12:59:00,12:59:00,12:59:00,0,0,0.0,0,0.0,0,16575.0,16575.0,16575.0,16575.0,0,0,0,0,0,0
2016-10-03 13:00:00,13:00:00,13:00:56,30772,30956,16570.0,25,16575.0,49,16575.0,16575.0,16560.0,16565.0,205,-37,16565,55,16570,36
2016-10-03 13:01:00,13:01:19,13:01:19,30988,31002,16565.0,87,16570.0,35,16570.0,16570.0,16570.0,16570.0,32,32,16570,59,16575,21
2016-10-03 13:02:00,13:02:15,13:02:42,31036,31057,16570.0,56,16575.0,29,16575.0,16575.0,16570.0,16575.0,18,8,16570,50,16575,13
2016-10-03 13:03:00,13:03:00,13:03:00,0,0,0.0,0,0.0,0,16575.0,16575.0,16575.0,16575.0,0,0,0,0,0,0
2016-10-03 13:04:00,13:04:05,13:04:55,31096,31163,16570.0,36,16575.0,62,16575.0,16575.0,16570.0,16575.0,85,47,16575,3,16580,56
2016-10-03 13:05:00,13:05:00,13:05:01,31171,31208,16575.0,31,16580.0,42,16580.0,16580.0,16580.0,16580.0,63,63,16575,39,16585,46
2016-10-03 13:06:00,13:06:04,13:06:59,31272,31330,16580.0,38,16585.0,38,16585.0,16585.0,16580.0,16585.0,49,46,16580,43,16585,1
2016-10-03 13:07:00,13:07:00,13:07:12,31333,31342,16580.0,43,16585.0,1,16585.0,16585.0,16585.0,16585.0,2,2,16580,42,16585,1
2016-10-03 13:08:00,13:08:00,13:08:00,0,0,0.0,0,0.0,0,16585.0,16585.0,16585.0,16585.0,0,0,0,0,0,0
2016-10-03 13:09:00,13:09:56,13:09:56,31422,31423,16580.0,47,16585.0,29,16585.0,16585.0,16585.0,16585.0,3,3,16580,48,16585,27
2016-10-03 13:10:00,13:10:14,13:10:31,31434,31513,16580.0,47,16585.0,35,16580.0,16580.0,16570.0,16575.0,107,-75,16570,50,16575,11
2016-10-03 13:11:00,13:11:29,13:11:56,31539,31550,16570.0,38,16575.0,31,16570.0,16575.0,16570.0,16575.0,6,2,16570,40,16575,28
2016-10-03 13:12:00,13:12:26,13:12:54,31562,31567,16570.0,39,16575.0,27,16575.0,16575.0,16570.0,16570.0,3,1,16570,44,16575,30
2016-10-03 13:13:00,13:13:36,13:13:47,31580,31603,16570.0,46,16575.0,29,16570.0,16575.0,16570.0,16575.0,28,24,16575,29,16580,72
2016-10-03 13:14:00,13:14:03,13:14:24,31618,31662,16575.0,44,16580.0,67,16580.0,16585.0,16580.0,16585.0,73,73,16580,44,16585,35
2016-10-03 13:15:00,13:15:21,13:15:51,31700,31718,16580.0,31,16585.0,46,16580.0,16580.0,16580.0,16580.0,28,-28,16575,38,16580,82
2016-10-03 13:16:00,13:16:06,13:16:11,31733,31769,16575.0,42,16580.0,72,16575.0,16575.0,16575.0,16575.0,53,-41,16570,41,16575,23
2016-10-03 13:17:00,13:17:03,13:17:50,31790,31832,16570.0,46,16575.0,41,16570.0,16575.0,16570.0,16575.0,28,20,16570,46,16575,27
2016-10-03 13:18:00,13:18:12,13:18:59,31845,31980,16570.0,53,16575.0,39,16570.0,16570.0,16560.0,16565.0,172,-148,16565,3,16570,67
2016-10-03 13:19:00,13:19:02,13:19:54,31987,32126,16565.0,1,16570.0,67,16565.0,16575.0,16560.0,16575.0,174,144,16575,4,16580,51
2016-10-03 13:20:00,13:20:05,13:20:59,32148,32258,16575.0,5,16580.0,59,16575.0,16585.0,16575.0,16585.0,150,126,16580,50,16590,39
2016-10-03 13:21:00,13:21:04,13:21:43,32268,32321,16580.0,53,16585.0,20,16585.0,16585.0,16580.0,16580.0,55,-17,16575,43,16580,43
2016-10-03 13:22:00,13:22:02,13:22:31,32341,32394,16575.0,31,16580.0,49,16580.0,16585.0,16580.0,16580.0,61,5,16580,50,16585,35
2016-10-03 13:23:00,13:23:07,13:23:52,32405,32416,16580.0,52,16585.0,35,16580.0,16580.0,16580.0,16580.0,2,-2,16580,48,16585,24
2016-10-03 13:24:00,13:24:10,13:24:59,32420,32460,16580.0,50,16585.0,39,16585.0,16585.0,16580.0,16585.0,26,10,16580,63,16585,22
2016-10-03 13:25:00,13:25:04,13:25:54,32466,32546,16580.0,63,16585.0,23,16580.0,16590.0,16580.0,16590.0,55,43,16585,52,16590,28
2016-10-03 13:26:00,13:26:01,13:26:31,32554,32580,16585.0,51,16590.0,34,16585.0,16590.0,16585.0,16590.0,27,23,16585,58,16590,12
2016-10-03 13:27:00,13:27:04,13:27:56,32615,32652,16585.0,50,16590.0,30,16590.0,16590.0,16585.0,16590.0,8,6,16585,37,16590,34
2016-10-03 13:28:00,13:28:32,13:28:35,32676,32686,16585.0,38,16590.0,36,16590.0,16590.0,16585.0,16585.0,14,-6,16585,35,16590,34
2016-10-03 13:29:00,13:29:50,13:29:58,32723,32743,16585.0,30,16590.0,38,16590.0,16590.0,16590.0,16590.0,22,22,16585,32,16590,31
2016-10-03 13:30:00,13:30:05,13:30:58,32754,32854,16585.0,44,16590.0,29,16585.0,16585.0,16580.0,16580.0,121,-83,16580,42,16585,31
2016-10-03 13:31:00,13:31:07,13:31:50,32859,32904,16580.0,73,16585.0,31,16580.0,16585.0,16580.0,16585.0,53,-49,16580,43,16585,32
2016-10-03 13:32:00,13:32:20,13:32:20,32921,32929,16580.0,60,16585.0,28,16585.0,16585.0,16585.0,16585.0,19,19,16585,22,16590,117
2016-10-03 13:33:00,13:33:08,13:33:35,32967,33024,16585.0,62,16590.0,103,16590.0,16590.0,16590.0,16590.0,121,97,16585,73,16590,31
2016-10-03 13:34:00,13:34:00,13:34:57,33041,33104,16585.0,64,16590.0,35,16590.0,16590.0,16590.0,16590.0,38,18,16590,30,16595,90
2016-10-03 13:35:00,13:35:05,13:35:52,33114,33185,16590.0,23,16595.0,100,16595.0,16595.0,16580.0,16580.0,77,-51,16580,43,16585,55
2016-10-03 13:36:00,13:36:02,13:36:26,33194,33218,16580.0,34,16585.0,59,16580.0,16585.0,16580.0,16585.0,39,29,16585,15,16590,72
2016-10-03 13:37:00,13:37:00,13:37:55,33245,33339,16585.0,23,16590.0,70,16585.0,16585.0,16585.0,16585.0,86,-33,16580,49,16590,166
2016-10-03 13:38:00,13:38:00,13:38:57,33349,33414,16585.0,20,16590.0,166,16585.0,16590.0,16585.0,16590.0,104,86,16585,71,16590,75
2016-10-03 13:39:00,13:39:00,13:39:20,33418,33427,16585.0,71,16590.0,77,16590.0,16590.0,16585.0,16585.0,16,-4,16585,50,16590,74
2016-10-03 13:40:00,13:40:01,13:40:45,33458,33552,16585.0,36,16590.0,95,16585.0,16585.0,16575.0,16575.0,142,-118,16575,32,16580,40
2016-10-03 13:41:00,13:41:04,13:41:04,33570,33573,16575.0,37,16580.0,37,16580.0,16580.0,16580.0,16580.0,5,5,16575,38,16580,23
2016-10-03 13:42:00,13:42:05,13:42:59,33610,33668,16575.0,48,16580.0,39,16580.0,16585.0,16580.0,16585.0,70,30,16580,111,16585,25
2016-10-03 13:43:00,13:43:13,13:43:50,33671,33698,16580.0,109,16585.0,26,16585.0,16585.0,16585.0,16585.0,25,25,16580,109,16585,7
2016-10-03 13:44:00,13:44:02,13:44:59,33707,33754,16580.0,110,16585.0,32,16585.0,16585.0,16580.0,16585.0,32,14,16580,83,16585,24
2016-10-03 13:45:00,13:45:27,13:45:27,33776,33778,16580.0,84,16585.0,26,16585.0,16585.0,16585.0,16585.0,7,7,16580,85,16585,19
2016-10-03 13:46:00,13:46:26,13:46:57,33806,33831,16580.0,87,16585.0,46,16585.0,16585.0,16580.0,16585.0,17,-3,16580,124,16585,37
2016-10-03 13:47:00,13:47:00,13:47:55,33833,33911,16580.0,123,16585.0,37,16585.0,16585.0,16575.0,16580.0,156,-98,16575,33,16580,51
2016-10-03 13:48:00,13:48:00,13:48:46,33919,34022,16575.0,33,16580.0,57,16580.0,16580.0,16570.0,16570.0,118,-70,16570,41,16575,58
2016-10-03 13:49:00,13:49:12,13:49:47,34045,34103,16570.0,65,16575.0,56,16570.0,16575.0,16570.0,16575.0,26,2,16570,64,16575,50
2016-10-03 13:50:00,13:50:28,13:50:53,34135,34159,16570.0,62,16575.0,98,16575.0,16575.0,16570.0,16570.0,17,-7,16570,54,16575,92
2016-10-03 13:51:00,13:51:02,13:51:32,34168,34248,16570.0,52,16575.0,92,16570.0,16575.0,16570.0,16575.0,113,55,16575,67,16580,60
2016-10-03 13:52:00,13:52:06,13:52:26,34296,34340,16575.0,75,16580.0,61,16575.0,16575.0,16575.0,16575.0,57,-39,16570,87,16575,39
2016-10-03 13:53:00,13:53:03,13:53:55,34367,34437,16570.0,93,16575.0,55,16575.0,16575.0,16570.0,16570.0,68,12,16570,76,16575,87
2016-10-03 13:54:00,13:54:06,13:54:46,34442,34490,16570.0,76,16575.0,87,16575.0,16575.0,16575.0,16575.0,92,92,16575,23,16580,67
2016-10-03 13:55:00,13:55:01,13:55:56,34509,34732,16575.0,54,16580.0,58,16580.0,16585.0,16575.0,16580.0,320,14,16580,14,16585,56
2016-10-03 13:56:00,13:56:00,13:56:31,34745,34776,16580.0,47,16585.0,45,16580.0,16585.0,16580.0,16585.0,19,-17,16580,41,16585,45
2016-10-03 13:57:00,13:57:05,13:57:39,34792,34873,16580.0,47,16585.0,47,16585.0,16585.0,16580.0,16585.0,82,64,16580,60,16585,21
2016-10-03 13:58:00,13:58:08,13:58:59,34901,35015,16580.0,90,16585.0,21,16585.0,16590.0,16580.0,16580.0,109,-47,16580,69,16585,106
2016-10-03 13:59:00,13:59:13,13:59:58,35038,35345,16580.0,117,16585.0,102,16580.0,16585.0,16575.0,16585.0,407,55,16580,10,16585,54
2016-10-03 14:00:00,14:00:00,14:00:58,35352,35760,16580.0,61,16585.0,99,16585.0,16590.0,16575.0,16575.0,755,-204,16575,21,16580,128
2016-10-03 14:01:00,14:01:02,14:01:57,35774,35969,16575.0,53,16580.0,127,16575.0,16585.0,16575.0,16580.0,372,216,16575,133,16585,120
2016-10-03 14:02:00,14:02:12,14:02:59,35998,36193,16580.0,112,16585.0,142,16585.0,16585.0,16580.0,16580.0,395,45,16580,84,16585,90
2016-10-03 14:03:00,14:03:01,14:03:58,36201,36357,16580.0,87,16585.0,93,16580.0,16590.0,16580.0,16590.0,193,137,16585,85,16590,95
2016-10-03 14:04:00,14:04:00,14:04:55,36360,36500,16585.0,92,16590.0,125,16585.0,16595.0,16585.0,16590.0,263,207,16590,215,16595,198
2016-10-03 14:05:00,14:05:00,14:05:42,36504,36633,16590.0,215,16595.0,199,16590.0,16595.0,16585.0,16585.0,341,-285,16585,84,16590,78
2016-10-03 14:06:00,14:06:00,14:06:57,36667,36820,16585.0,27,16590.0,106,16585.0,16590.0,16580.0,16590.0,206,18,16585,116,16590,20
2016-10-03 14:07:00,14:07:00,14:07:29,36825,36964,16585.0,116,16590.0,17,16585.0,16590.0,16585.0,16590.0,208,-58,16585,128,16590,6
2016-10-03 14:08:00,14:08:04,14:08:50,37002,37140,16585.0,190,16590.0,77,16585.0,16585.0,16585.0,16585.0,335,-175,16585,41,16590,132
