,ST,ET,sidx,eidx,bB,bBS,bA,bAS,O,H,L,C,V,OF,eB,eBS,eA,eAS
2016-11-28 08:00:00,08:00:00,08:00:59,2881,3272,18300.0,4,18305.0,37,18300.0,18315.0,18290.0,18290.0,416,-76,18290,6,18295,82
2016-11-28 08:01:00,08:01:00,08:01:52,3273,3687,18290.0,15,18295.0,83,18295.0,18305.0,18290.0,18290.0,510,-44,18290,8,18295,63
2016-11-28 08:02:00,08:02:00,08:02:58,3706,4041,18290.0,22,18295.0,67,18290.0,18295.0,18280.0,18295.0,412,50,18290,75,18295,29
2016-11-28 08:03:00,08:03:05,08:03:59,4051,4328,18290.0,86,18295.0,25,18290.0,18295.0,18280.0,18295.0,357,-67,18290,95,18295,2
2016-11-28 08:04:00,08:04:08,08:04:59,4344,4486,18290.0,110,18295.0,5,18295.0,18295.0,18295.0,18295.0,176,-116,18295,10,18300,63
2016-11-28 08:05:00,08:05:01,08:05:51,4491,4704,18295.0,8,18300.0,65,18295.0,18300.0,18290.0,18290.0,261,25,18290,86,18295,55
2016-11-28 08:06:00,08:06:03,08:06:50,4721,4870,18290.0,79,18295.0,63,18290.0,18295.0,18290.0,18295.0,266,32,18290,68,18295,4
2016-11-28 08:07:00,08:07:01,08:07:56,4887,5166,18290.0,68,18295.0,26,18295.0,18295.0,18285.0,18285.0,359,-153,18280,63,18285,10
2016-11-28 08:08:00,08:08:10,08:08:49,5179,5311,18280.0,63,18285.0,28,18285.0,18295.0,18285.0,18285.0,140,100,18285,27,18290,52
2016-11-28 08:09:00,08:09:04,08:09:56,5325,5525,18285.0,31,18290.0,49,18285.0,18300.0,18285.0,18295.0,287,147,18290,53,18295,18
2016-11-28 08:10:00,08:10:02,08:10:55,5538,5638,18290.0,82,18295.0,17,18295.0,18305.0,18295.0,18305.0,76,72,18300,65,18305,31
2016-11-28 08:11:00,08:11:02,08:11:44,5648,5741,18300.0,65,18305.0,36,18300.0,18305.0,18300.0,18305.0,82,42,18305,5,18310,50
2016-11-28 08:12:00,08:12:16,08:12:49,5769,5973,18305.0,43,18310.0,60,18310.0,18315.0,18305.0,18310.0,360,-22,18310,18,18315,45
2016-11-28 08:13:00,08:13:02,08:13:58,5984,6250,18310.0,37,18315.0,39,18310.0,18315.0,18305.0,18315.0,346,-59,18310,15,18315,23
2016-11-28 08:14:00,08:14:03,08:14:48,6258,6405,18310.0,37,18315.0,29,18310.0,18310.0,18305.0,18310.0,171,-51,18310,13,18315,30
2016-11-28 08:15:00,08:15:10,08:15:58,6420,6593,18310.0,25,18315.0,43,18310.0,18325.0,18310.0,18325.0,206,84,18320,40,18325,19
2016-11-28 08:16:00,08:16:07,08:16:58,6614,6852,18320.0,48,18325.0,57,18320.0,18335.0,18320.0,18335.0,230,12,18330,44,18335,45
2016-11-28 08:17:00,08:17:00,08:17:47,6857,7019,18330.0,40,18335.0,45,18335.0,18335.0,18325.0,18325.0,143,-101,18325,37,18330,43
2016-11-28 08:18:00,08:18:05,08:18:59,7033,7205,18325.0,38,18330.0,46,18325.0,18330.0,18325.0,18325.0,202,-61,18320,62,18325,8
2016-11-28 08:19:00,08:19:00,08:19:58,7210,7383,18320.0,59,18325.0,28,18320.0,18335.0,18320.0,18335.0,193,37,18330,56,18335,24
2016-11-28 08:20:00,08:20:00,08:20:58,7387,7557,18330.0,56,18335.0,37,18330.0,18330.0,18330.0,18330.0,188,-27,18330,15,18335,29
2016-11-28 08:21:00,08:21:00,08:21:46,7565,7623,18330.0,14,18335.0,42,18330.0,18335.0,18330.0,18335.0,26,-4,18335,17,18340,50
2016-11-28 08:22:00,08:22:02,08:22:55,7636,7875,18335.0,31,18340.0,51,18340.0,18345.0,18330.0,18335.0,302,74,18335,40,18340,48
2016-11-28 08:23:00,08:23:00,08:23:59,7888,8088,18335.0,36,18340.0,35,18335.0,18340.0,18330.0,18330.0,236,-122,18330,1,18335,39
2016-11-28 08:24:00,08:24:02,08:24:59,8095,8437,18330.0,2,18335.0,50,18330.0,18330.0,18310.0,18315.0,365,-98,18310,51,18315,5
2016-11-28 08:25:00,08:25:00,08:25:58,8440,8641,18310.0,51,18315.0,5,18310.0,18320.0,18305.0,18305.0,215,-147,18305,9,18310,49
2016-11-28 08:26:00,08:26:00,08:26:36,8650,8818,18305.0,18,18310.0,34,18305.0,18310.0,18305.0,18310.0,148,-30,18305,20,18310,34
2016-11-28 08:27:00,08:27:03,08:27:58,8857,8978,18305.0,23,18310.0,41,18305.0,18315.0,18305.0,18310.0,103,7,18310,23,18315,32
2016-11-28 08:28:00,08:28:00,08:28:57,8984,9028,18310.0,21,18315.0,42,18310.0,18315.0,18310.0,18315.0,7,1,18310,42,18315,51
2016-11-28 08:29:00,08:29:04,08:29:38,9034,9096,18310.0,44,18315.0,50,18310.0,18320.0,18310.0,18320.0,60,56,18315,49,18320,3
2016-11-28 08:30:00,08:30:01,08:30:54,9130,9304,18315.0,38,18320.0,24,18320.0,18325.0,18315.0,18320.0,193,13,18315,60,18320,2
2016-11-28 08:31:00,08:31:03,08:31:54,9323,9410,18315.0,30,18320.0,47,18315.0,18315.0,18305.0,18305.0,72,-22,18305,53,18310,30
2016-11-28 08:32:00,08:32:11,08:32:51,9426,9579,18305.0,55,18310.0,21,18305.0,18310.0,18305.0,18305.0,178,-46,18300,54,18305,10
2016-11-28 08:33:00,08:33:17,08:33:52,9600,9708,18300.0,56,18305.0,16,18305.0,18310.0,18305.0,18310.0,89,39,18305,63,18310,8
2016-11-28 08:34:00,08:34:00,08:34:39,9715,9796,18305.0,62,18310.0,9,18310.0,18310.0,18300.0,18305.0,61,-49,18305,8,18310,38
2016-11-28 08:35:00,08:35:01,08:35:02,9817,9820,18305.0,28,18310.0,30,18305.0,18305.0,18305.0,18305.0,2,-2,18305,25,18310,31
2016-11-28 08:36:00,08:36:00,08:36:59,9856,9949,18305.0,31,18310.0,42,18305.0,18310.0,18305.0,18310.0,70,10,18305,59,18310,4
2016-11-28 08:37:00,08:37:08,08:37:47,9958,10040,18305.0,61,18310.0,4,18310.0,18310.0,18310.0,18310.0,103,-23,18310,6,18315,82
2016-11-28 08:38:00,08:38:03,08:38:09,10053,10091,18310.0,33,18315.0,78,18310.0,18310.0,18310.0,18310.0,44,0,18305,63,18315,68
2016-11-28 08:39:00,08:39:01,08:39:54,10127,10202,18305.0,58,18310.0,43,18305.0,18305.0,18295.0,18295.0,60,-60,18295,64,18300,36
2016-11-28 08:40:00,08:40:00,08:40:47,10210,10345,18295.0,61,18300.0,50,18295.0,18300.0,18295.0,18300.0,183,11,18295,42,18300,30
2016-11-28 08:41:00,08:41:44,08:41:54,10401,10452,18295.0,75,18300.0,51,18295.0,18295.0,18290.0,18290.0,91,-88,18290,53,18295,31
2016-11-28 08:42:00,08:42:00,08:42:32,10459,10525,18290.0,54,18295.0,37,18290.0,18295.0,18290.0,18295.0,56,22,18295,52,18300,59
2016-11-28 08:43:00,08:43:00,08:43:59,10538,10665,18295.0,46,18300.0,61,18295.0,18300.0,18290.0,18295.0,122,-39,18290,52,18295,1
2016-11-28 08:44:00,08:44:00,08:44:52,10669,10808,18290.0,60,18295.0,1,18295.0,18295.0,18285.0,18285.0,152,-18,18285,22,18290,44
2016-11-28 08:45:00,08:45:00,08:45:59,10825,11371,18285.0,20,18290.0,79,18285.0,18285.0,18265.0,18270.0,876,-314,18270,41,18275,63
2016-11-28 08:46:00,08:46:00,08:46:55,11375,11698,18270.0,41,18275.0,64,18270.0,18270.0,18260.0,18265.0,441,-116,18265,32,18265,7
2016-11-28 08:47:00,08:47:00,08:47:57,11702,11912,18265.0,36,18270.0,57,18265.0,18275.0,18260.0,18265.0,232,-114,18265,5,18270,48
2016-11-28 08:48:00,08:48:00,08:48:26,11921,12048,18265.0,27,18270.0,30,18265.0,18270.0,18265.0,18265.0,216,-160,18265,17,18270,51
2016-11-28 08:49:00,08:49:00,08:49:51,12081,12292,18265.0,51,18270.0,31,18265.0,18280.0,18265.0,18275.0,254,-76,18270,49,18275,23
2016-11-28 08:50:00,08:50:00,08:50:44,12301,12387,18270.0,48,18275.0,9,18270.0,18285.0,18270.0,18285.0,72,62,18280,46,18285,32
2016-11-28 08:51:00,08:51:09,08:51:54,12394,12550,18280.0,46,18285.0,30,18285.0,18285.0,18275.0,18275.0,142,-54,18275,27,18280,52
2016-11-28 08:52:00,08:52:00,08:52:50,12552,12689,18275.0,27,18280.0,51,18275.0,18275.0,18270.0,18275.0,113,-75,18270,34,18275,15
2016-11-28 08:53:00,08:53:00,08:53:59,12699,12877,18270.0,37,18275.0,21,18270.0,18270.0,18260.0,18260.0,129,-70,18260,15,18265,58
2016-11-28 08:54:00,08:54:01,08:54:52,12885,13173,18260.0,18,18265.0,55,18260.0,18265.0,18250.0,18250.0,326,-106,18245,67,18250,2
2016-11-28 08:55:00,08:55:08,08:55:57,13215,13405,18245.0,71,18250.0,37,18250.0,18255.0,18250.0,18255.0,136,-36,18255,24,18260,58
2016-11-28 08:56:00,08:56:00,08:56:57,13408,13768,18255.0,26,18260.0,60,18255.0,18260.0,18245.0,18250.0,525,-211,18250,11,18255,37
2016-11-28 08:57:00,08:57:03,08:57:52,13783,13929,18250.0,24,18255.0,60,18250.0,18250.0,18250.0,18250.0,228,-24,18245,62,18250,2
2016-11-28 08:58:00,08:58:02,08:58:38,13942,14034,18250.0,23,18255.0,62,18250.0,18250.0,18250.0,18250.0,53,-23,18250,33,18255,37
2016-11-28 08:59:00,08:59:02,08:59:59,14067,14267,18250.0,48,18255.0,28,18255.0,18260.0,18250.0,18260.0,232,-73,18255,33,18260,39
2016-11-28 09:00:00,09:00:01,09:00:58,14274,14519,18255.0,34,18260.0,37,18260.0,18270.0,18245.0,18270.0,302,58,18265,65,18275,56
2016-11-28 09:01:00,09:01:02,09:01:55,14526,14684,18270.0,17,18275.0,53,18270.0,18270.0,18270.0,18270.0,170,-143,18265,61,18275,52
2016-11-28 09:02:00,09:02:00,09:02:49,14693,14787,18270.0,2,18275.0,51,18270.0,18270.0,18260.0,18265.0,75,-21,18260,54,18265,4
2016-11-28 09:03:00,09:03:00,09:03:51,14802,14928,18260.0,55,18265.0,4,18260.0,18270.0,18260.0,18270.0,94,33,18270,18,18275,27
2016-11-28 09:04:00,09:04:04,09:04:55,14944,15075,18270.0,111,18275.0,18,18275.0,18280.0,18275.0,18275.0,118,-34,18275,20,18280,45
2016-11-28 09:05:00,09:05:27,09:05:56,15096,15232,18275.0,24,18280.0,52,18280.0,18285.0,18280.0,18285.0,193,113,18280,31,18285,15
2016-11-28 09:06:00,09:06:01,09:06:53,15246,15403,18280.0,62,18285.0,9,18285.0,18290.0,18280.0,18280.0,260,-58,18275,25,18280,19
2016-11-28 09:07:00,09:07:01,09:07:58,15413,15526,18275.0,52,18280.0,11,18280.0,18280.0,18275.0,18280.0,77,25,18275,53,18285,46
2016-11-28 09:08:00,09:08:02,09:08:59,15532,15604,18275.0,53,18280.0,16,18280.0,18285.0,18280.0,18285.0,55,25,18285,11,18290,62
2016-11-28 09:09:00,09:09:00,09:09:51,15605,15785,18280.0,44,18285.0,26,18285.0,18285.0,18280.0,18285.0,269,-23,18280,53,18285,8
2016-11-28 09:10:00,09:10:10,09:10:59,15801,16037,18280.0,54,18285.0,8,18285.0,18300.0,18280.0,18280.0,272,66,18275,49,18280,1
2016-11-28 09:11:00,09:11:00,09:11:55,16041,16177,18275.0,49,18280.0,8,18275.0,18280.0,18270.0,18270.0,57,25,18270,97,18275,32
2016-11-28 09:12:00,09:12:00,09:12:59,16183,16384,18270.0,97,18275.0,32,18270.0,18270.0,18265.0,18270.0,215,-137,18270,20,18275,31
2016-11-28 09:13:00,09:13:00,09:13:48,16387,16461,18270.0,20,18275.0,31,18270.0,18270.0,18265.0,18270.0,62,-34,18270,5,18275,48
2016-11-28 09:14:00,09:14:05,09:14:47,16487,16541,18270.0,13,18275.0,42,18270.0,18275.0,18270.0,18275.0,49,13,18270,62,18280,45
2016-11-28 09:15:00,09:15:01,09:15:59,16553,16819,18275.0,9,18280.0,45,18280.0,18280.0,18260.0,18260.0,192,-64,18260,4,18265,47
2016-11-28 09:16:00,09:16:00,09:16:59,16824,17132,18260.0,8,18265.0,44,18260.0,18270.0,18255.0,18270.0,273,-19,18270,1,18275,47
2016-11-28 09:17:00,09:17:04,09:17:59,17140,17374,18270.0,6,18275.0,46,18270.0,18270.0,18265.0,18265.0,261,-51,18265,6,18270,29
2016-11-28 09:18:00,09:18:00,09:18:58,17378,17528,18265.0,6,18270.0,45,18265.0,18270.0,18265.0,18265.0,79,8,18265,4,18270,54
2016-11-28 09:19:00,09:19:00,09:19:52,17535,17757,18260.0,38,18265.0,9,18260.0,18265.0,18255.0,18265.0,220,-14,18265,4,18270,25
2016-11-28 09:20:00,09:20:00,09:20:54,17764,17866,18265.0,5,18270.0,43,18265.0,18265.0,18260.0,18260.0,105,39,18255,47,18265,47
2016-11-28 09:21:00,09:21:00,09:21:43,17870,17953,18260.0,4,18265.0,47,18260.0,18260.0,18255.0,18260.0,56,-46,18260,38,18265,26
2016-11-28 09:22:00,09:22:02,09:22:52,17979,18058,18260.0,42,18265.0,20,18265.0,18270.0,18265.0,18270.0,64,26,18270,6,18275,22
2016-11-28 09:23:00,09:23:03,09:23:51,18064,18170,18270.0,18,18275.0,22,18270.0,18275.0,18270.0,18275.0,50,12,18270,62,18275,5
2016-11-28 09:24:00,09:24:00,09:24:46,18178,18293,18270.0,65,18275.0,5,18275.0,18275.0,18270.0,18270.0,74,-42,18270,4,18275,49
2016-11-28 09:25:00,09:25:01,09:25:55,18307,18431,18270.0,18,18275.0,47,18270.0,18270.0,18265.0,18265.0,95,-18,18265,15,18270,40
2016-11-28 09:26:00,09:26:02,09:26:56,18433,18527,18265.0,15,18270.0,41,18265.0,18270.0,18265.0,18270.0,70,-43,18265,48,18270,3
2016-11-28 09:27:00,09:27:02,09:27:59,18541,18719,18265.0,12,18270.0,50,18265.0,18265.0,18255.0,18260.0,143,-53,18255,45,18260,7
2016-11-28 09:28:00,09:28:00,09:28:58,18722,19001,18255.0,45,18260.0,7,18255.0,18255.0,18245.0,18245.0,346,-99,18245,4,18250,62
2016-11-28 09:29:00,09:29:02,09:29:54,19008,19122,18245.0,8,18250.0,61,18245.0,18245.0,18240.0,18245.0,64,-7,18245,49,18250,51
2016-11-28 09:30:00,09:30:00,09:30:57,19130,19369,18245.0,51,18250.0,46,18245.0,18260.0,18245.0,18255.0,293,37,18255,5,18260,47
2016-11-28 09:31:00,09:31:20,09:31:58,19389,19519,18255.0,14,18260.0,47,18255.0,18260.0,18250.0,18255.0,198,-132,18255,6,18260,31
2016-11-28 09:32:00,09:32:00,09:32:55,19526,19680,18255.0,3,18260.0,26,18255.0,18270.0,18255.0,18270.0,112,78,18265,46,18270,7
2016-11-28 09:33:00,09:33:04,09:33:31,19698,19767,18265.0,45,18270.0,16,18270.0,18270.0,18270.0,18270.0,54,14,18270,42,18275,21
2016-11-28 09:34:00,09:34:03,09:34:47,19795,19896,18270.0,50,18275.0,11,18275.0,18280.0,18275.0,18275.0,77,-15,18275,31,18280,30
2016-11-28 09:35:00,09:35:24,09:35:57,19931,20034,18275.0,24,18280.0,51,18280.0,18285.0,18280.0,18280.0,95,-39,18280,20,18285,43
2016-11-28 09:36:00,09:36:00,09:36:56,20040,20198,18280.0,25,18285.0,43,18285.0,18285.0,18280.0,18280.0,108,-33,18275,49,18280,6
2016-11-28 09:37:00,09:37:01,09:37:58,20211,20319,18280.0,24,18285.0,35,18285.0,18295.0,18285.0,18290.0,44,28,18285,61,18295,37
2016-11-28 09:38:00,09:38:02,09:38:58,20328,20462,18285.0,61,18290.0,8,18290.0,18295.0,18285.0,18290.0,84,-21,18285,64,18295,53
2016-11-28 09:39:00,09:39:01,09:39:49,20467,20590,18290.0,5,18295.0,49,18290.0,18295.0,18290.0,18290.0,89,7,18285,31,18290,18
2016-11-28 09:40:00,09:40:00,09:40:47,20606,20743,18285.0,51,18290.0,20,18285.0,18285.0,18280.0,18280.0,96,-76,18280,12,18285,48
2016-11-28 09:41:00,09:41:01,09:41:56,20770,20925,18280.0,22,18285.0,46,18285.0,18285.0,18275.0,18275.0,141,-62,18275,4,18280,50
2016-11-28 09:42:00,09:42:00,09:42:54,20933,21087,18275.0,9,18280.0,51,18275.0,18280.0,18275.0,18280.0,103,21,18280,11,18285,67
2016-11-28 09:43:00,09:43:02,09:43:55,21094,21210,18280.0,21,18285.0,67,18285.0,18290.0,18280.0,18290.0,72,44,18285,14,18290,45
2016-11-28 09:44:00,09:44:00,09:44:51,21214,21287,18285.0,13,18290.0,45,18285.0,18285.0,18280.0,18280.0,29,-29,18280,40,18285,32
2016-11-28 09:45:00,09:45:00,09:45:58,21292,21383,18280.0,43,18285.0,34,18285.0,18290.0,18285.0,18285.0,36,2,18280,52,18290,56
2016-11-28 09:46:00,09:46:01,09:46:54,21392,21492,18285.0,14,18290.0,56,18285.0,18290.0,18285.0,18290.0,91,41,18285,50,18295,49
2016-11-28 09:47:00,09:47:02,09:47:55,21499,21658,18290.0,13,18295.0,47,18290.0,18295.0,18285.0,18285.0,139,-10,18285,8,18290,50
2016-11-28 09:48:00,09:48:05,09:48:59,21666,21830,18285.0,19,18290.0,48,18285.0,18290.0,18280.0,18280.0,115,-33,18275,21,18280,13
2016-11-28 09:49:00,09:49:00,09:49:50,21835,22159,18275.0,21,18280.0,21,18275.0,18275.0,18260.0,18270.0,389,-15,18265,16,18270,9
2016-11-28 09:50:00,09:50:00,09:50:57,22176,22368,18265.0,30,18270.0,70,18265.0,18265.0,18255.0,18255.0,189,-149,18255,7,18260,51
2016-11-28 09:51:00,09:51:00,09:51:50,22375,22577,18255.0,7,18260.0,52,18255.0,18275.0,18255.0,18270.0,188,66,18270,1,18275,54
2016-11-28 09:52:00,09:52:04,09:52:56,22588,22722,18270.0,46,18275.0,23,18270.0,18275.0,18270.0,18275.0,107,-30,18275,21,18280,49
2016-11-28 09:53:00,09:53:00,09:53:43,22731,22955,18275.0,38,18280.0,50,18275.0,18275.0,18265.0,18265.0,223,-135,18265,7,18270,26
2016-11-28 09:54:00,09:54:00,09:54:55,22986,23232,18265.0,12,18270.0,48,18265.0,18275.0,18265.0,18275.0,271,-12,18270,39,18275,14
2016-11-28 09:55:00,09:55:06,09:55:36,23244,23336,18270.0,31,18275.0,61,18270.0,18270.0,18270.0,18270.0,116,-6,18270,51,18275,71
2016-11-28 09:56:00,09:56:01,09:56:59,23359,23519,18270.0,8,18275.0,83,18270.0,18270.0,18265.0,18270.0,95,-12,18270,29,18275,68
2016-11-28 09:57:00,09:57:00,09:57:54,23522,23810,18270.0,29,18275.0,68,18270.0,18275.0,18260.0,18265.0,377,-243,18260,29,18265,22
2016-11-28 09:58:00,09:58:04,09:58:58,23823,24066,18260.0,32,18265.0,45,18260.0,18265.0,18255.0,18255.0,275,-99,18255,35,18260,48
2016-11-28 09:59:00,09:59:01,09:59:58,24073,24329,18255.0,38,18260.0,48,18255.0,18260.0,18250.0,18255.0,359,-47,18250,55,18260,86
2016-11-28 10:00:00,10:00:00,10:00:59,24335,24879,18250.0,62,18255.0,15,18255.0,18255.0,18225.0,18225.0,987,-265,18225,19,18230,36
2016-11-28 10:01:00,10:01:00,10:01:53,24883,25274,18225.0,19,18230.0,34,18225.0,18240.0,18220.0,18235.0,503,48,18230,60,18235,4
2016-11-28 10:02:00,10:02:00,10:02:52,25287,25676,18230.0,61,18235.0,22,18235.0,18235.0,18225.0,18235.0,567,-167,18235,19,18240,60
2016-11-28 10:03:00,10:03:02,10:03:57,25692,25941,18235.0,68,18240.0,40,18235.0,18240.0,18235.0,18240.0,452,-114,18240,9,18245,55
2016-11-28 10:04:00,10:04:00,10:04:57,25950,26104,18240.0,52,18245.0,30,18240.0,18245.0,18240.0,18240.0,180,136,18235,109,18240,7
2016-11-28 10:05:00,10:05:00,10:05:57,26106,26244,18235.0,105,18240.0,7,18240.0,18240.0,18235.0,18235.0,199,-77,18230,58,18240,57
2016-11-28 10:06:00,10:06:00,10:06:56,26250,26464,18235.0,7,18240.0,57,18235.0,18235.0,18225.0,18230.0,282,-16,18230,15,18235,54
2016-11-28 10:07:00,10:07:01,10:07:59,26473,26598,18230.0,29,18235.0,54,18235.0,18235.0,18230.0,18230.0,70,4,18225,59,18230,1
2016-11-28 10:08:00,10:08:01,10:08:58,26604,26818,18230.0,9,18235.0,42,18230.0,18235.0,18215.0,18220.0,263,-96,18220,9,18225,37
2016-11-28 10:09:00,10:09:00,10:09:54,26825,27104,18220.0,30,18225.0,37,18220.0,18230.0,18220.0,18230.0,327,-34,18225,18,18230,62
2016-11-28 10:10:00,10:10:02,10:10:48,27117,27358,18225.0,28,18230.0,57,18230.0,18235.0,18230.0,18230.0,277,81,18230,6,18235,56
2016-11-28 10:11:00,10:11:06,10:11:53,27390,27479,18230.0,38,18235.0,26,18230.0,18235.0,18230.0,18230.0,32,-18,18225,76,18235,50
2016-11-28 10:12:00,10:12:22,10:12:39,27512,27582,18230.0,52,18235.0,26,18235.0,18235.0,18235.0,18235.0,99,91,18235,12,18240,53
2016-11-28 10:13:00,10:13:00,10:13:49,27599,27714,18235.0,19,18240.0,50,18235.0,18245.0,18235.0,18235.0,163,63,18235,11,18240,41
2016-11-28 10:14:00,10:14:26,10:14:36,27745,27796,18235.0,44,18240.0,44,18235.0,18235.0,18230.0,18230.0,89,-89,18230,50,18235,28
2016-11-28 10:15:00,10:15:17,10:15:30,27847,27906,18230.0,62,18235.0,24,18235.0,18235.0,18230.0,18230.0,61,-9,18230,42,18235,29
2016-11-28 10:16:00,10:16:01,10:16:57,27940,28100,18230.0,45,18235.0,35,18235.0,18235.0,18225.0,18230.0,148,-16,18230,10,18235,28
2016-11-28 10:17:00,10:17:03,10:17:47,28115,28263,18230.0,17,18235.0,59,18230.0,18230.0,18230.0,18230.0,119,-37,18230,20,18235,42
2016-11-28 10:18:00,10:18:02,10:18:49,28285,28431,18230.0,26,18235.0,38,18235.0,18235.0,18225.0,18225.0,111,-59,18225,20,18230,58
2016-11-28 10:19:00,10:19:07,10:19:53,28458,28695,18225.0,41,18230.0,46,18225.0,18240.0,18225.0,18235.0,296,-49,18230,55,18235,10
2016-11-28 10:20:00,10:20:02,10:20:51,28706,28824,18230.0,50,18235.0,23,18230.0,18240.0,18230.0,18240.0,63,-39,18235,24,18240,51
2016-11-28 10:21:00,10:21:07,10:21:43,28841,28951,18235.0,26,18240.0,52,18240.0,18240.0,18235.0,18235.0,117,25,18230,47,18235,9
2016-11-28 10:22:00,10:22:00,10:22:57,28979,29115,18230.0,39,18235.0,40,18230.0,18235.0,18225.0,18235.0,104,16,18230,44,18235,2
2016-11-28 10:23:00,10:23:02,10:23:49,29127,29259,18235.0,12,18240.0,94,18235.0,18235.0,18230.0,18235.0,104,-22,18230,50,18235,2
2016-11-28 10:24:00,10:24:09,10:24:57,29289,29421,18230.0,85,18235.0,17,18235.0,18235.0,18230.0,18235.0,164,-64,18230,98,18235,7
2016-11-28 10:25:00,10:25:02,10:25:55,29429,29618,18230.0,89,18235.0,18,18235.0,18235.0,18225.0,18235.0,198,-42,18230,57,18235,2
2016-11-28 10:26:00,10:26:14,10:26:57,29632,29749,18230.0,58,18235.0,6,18235.0,18235.0,18235.0,18235.0,67,32,18235,23,18240,97
2016-11-28 10:27:00,10:27:14,10:27:55,29759,29865,18235.0,34,18240.0,93,18240.0,18245.0,18240.0,18240.0,167,-17,18235,59,18240,6
2016-11-28 10:28:00,10:28:01,10:28:57,29880,29933,18240.0,10,18245.0,86,18245.0,18245.0,18240.0,18240.0,27,-17,18235,74,18245,67
2016-11-28 10:29:00,10:29:00,10:29:58,29938,30072,18240.0,2,18245.0,68,18240.0,18245.0,18235.0,18235.0,78,-45,18235,52,18240,30
2016-11-28 10:30:00,10:30:01,10:30:58,30079,30213,18235.0,54,18240.0,36,18240.0,18245.0,18240.0,18245.0,105,102,18240,56,18245,14
2016-11-28 10:31:00,10:31:07,10:31:45,30224,30380,18240.0,60,18245.0,16,18245.0,18245.0,18230.0,18230.0,144,-96,18225,22,18230,28
2016-11-28 10:32:00,10:32:02,10:32:59,30393,30626,18225.0,45,18230.0,26,18230.0,18230.0,18220.0,18230.0,226,53,18225,33,18230,8
2016-11-28 10:33:00,10:33:02,10:33:44,30631,30729,18225.0,33,18230.0,8,18230.0,18230.0,18225.0,18225.0,57,-29,18220,78,18230,20
2016-11-28 10:34:00,10:34:04,10:34:56,30749,30805,18225.0,37,18230.0,26,18225.0,18225.0,18220.0,18220.0,6,-6,18220,72,18225,23
2016-11-28 10:35:00,10:35:18,10:35:37,30828,30894,18220.0,75,18225.0,24,18225.0,18225.0,18225.0,18225.0,64,30,18220,70,18225,4
2016-11-28 10:36:00,10:36:00,10:36:54,30917,31016,18220.0,76,18225.0,18,18220.0,18225.0,18220.0,18225.0,42,22,18220,78,18230,76
2016-11-28 10:37:00,10:37:00,10:37:22,31030,31089,18220.0,77,18225.0,15,18220.0,18225.0,18220.0,18225.0,63,25,18220,77,18225,12
2016-11-28 10:38:00,10:38:00,10:38:54,31120,31244,18220.0,71,18225.0,28,18220.0,18220.0,18210.0,18210.0,102,-102,18210,16,18215,54
2016-11-28 10:39:00,10:39:00,10:39:54,31248,31431,18210.0,16,18215.0,52,18210.0,18220.0,18210.0,18215.0,229,49,18215,11,18220,52
2016-11-28 10:40:00,10:40:22,10:40:37,31452,31512,18215.0,36,18220.0,37,18220.0,18225.0,18220.0,18225.0,105,91,18225,11,18230,53
2016-11-28 10:41:00,10:41:01,10:41:27,31535,31591,18225.0,24,18230.0,50,18225.0,18230.0,18225.0,18225.0,40,-22,18225,7,18230,52
2016-11-28 10:42:00,10:42:00,10:42:34,31642,31729,18225.0,5,18230.0,53,18225.0,18235.0,18225.0,18235.0,68,54,18230,40,18235,16
2016-11-28 10:43:00,10:43:19,10:43:57,31774,31875,18230.0,50,18235.0,21,18230.0,18230.0,18230.0,18230.0,101,-62,18225,48,18235,55
2016-11-28 10:44:00,10:44:00,10:44:54,31880,31924,18230.0,35,18235.0,30,18230.0,18230.0,18230.0,18230.0,26,-8,18225,112,18235,54
2016-11-28 10:45:00,10:45:06,10:45:54,31940,32064,18225.0,109,18230.0,5,18230.0,18230.0,18225.0,18225.0,182,-133,18220,53,18225,17
2016-11-28 10:46:00,10:46:03,10:46:33,32074,32124,18220.0,44,18225.0,24,18220.0,18225.0,18220.0,18225.0,42,2,18220,51,18225,2
2016-11-28 10:47:00,10:47:15,10:47:56,32145,32193,18220.0,45,18225.0,52,18225.0,18235.0,18225.0,18235.0,57,53,18230,3,18235,52
2016-11-28 10:48:00,10:48:35,10:48:53,32219,32258,18230.0,4,18235.0,52,18230.0,18235.0,18230.0,18235.0,17,7,18230,44,18235,16
2016-11-28 10:49:00,10:49:04,10:49:04,32268,32269,18235.0,3,18240.0,46,18235.0,18235.0,18235.0,18235.0,3,-3,18230,42,18240,44
2016-11-28 10:50:00,10:50:30,10:50:50,32305,32325,18235.0,15,18240.0,36,18235.0,18240.0,18235.0,18240.0,20,-16,18235,7,18240,44
2016-11-28 10:51:00,10:51:00,10:51:03,32331,32336,18235.0,2,18240.0,45,18235.0,18235.0,18230.0,18230.0,2,-2,18230,31,18235,19
2016-11-28 10:52:00,10:52:32,10:52:45,32360,32364,18230.0,42,18235.0,28,18230.0,18235.0,18230.0,18235.0,2,0,18230,44,18235,20
2016-11-28 10:53:00,10:53:00,10:53:57,32376,32437,18230.0,51,18235.0,3,18235.0,18235.0,18230.0,18235.0,49,-3,18235,2,18240,42
2016-11-28 10:54:00,10:54:09,10:54:53,32449,32490,18235.0,12,18240.0,38,18235.0,18235.0,18235.0,18235.0,12,-10,18235,7,18240,42
2016-11-28 10:55:00,10:55:01,10:55:01,32498,32498,18235.0,7,18240.0,38,18240.0,18240.0,18240.0,18240.0,1,1,18235,11,18240,37
2016-11-28 10:56:00,10:56:02,10:56:27,32529,32576,18235.0,22,18240.0,33,18240.0,18240.0,18240.0,18240.0,50,50,18240,21,18245,20
2016-11-28 10:57:00,10:57:00,10:57:56,32604,32667,18240.0,46,18245.0,11,18245.0,18245.0,18245.0,18245.0,26,20,18240,49,18245,3
2016-11-28 10:58:00,10:58:00,10:58:33,32675,32739,18240.0,47,18245.0,9,18245.0,18245.0,18240.0,18245.0,44,-12,18240,23,18245,29
2016-11-28 10:59:00,10:59:04,10:59:57,32752,32811,18240.0,29,18245.0,28,18240.0,18245.0,18240.0,18240.0,46,-16,18235,19,18240,37
2016-11-28 11:00:00,11:00:08,11:00:24,32827,32855,18235.0,14,18240.0,51,18235.0,18240.0,18235.0,18240.0,20,-4,18235,29,18240,5
2016-11-28 11:01:00,11:01:22,11:01:35,32883,32924,18235.0,16,18240.0,51,18235.0,18235.0,18230.0,18235.0,33,-15,18230,60,18240,52
2016-11-28 11:02:00,11:02:09,11:02:59,32947,33060,18235.0,51,18240.0,11,18240.0,18245.0,18240.0,18245.0,66,-17,18240,46,18245,3
2016-11-28 11:03:00,11:03:16,11:03:55,33092,33138,18240.0,46,18245.0,4,18245.0,18245.0,18245.0,18245.0,13,0,18240,54,18250,59
2016-11-28 11:04:00,11:04:00,11:04:35,33145,33192,18245.0,16,18250.0,58,18250.0,18250.0,18250.0,18250.0,29,29,18245,23,18250,42
2016-11-28 11:05:00,11:05:05,11:05:49,33211,33308,18245.0,29,18250.0,28,18250.0,18255.0,18250.0,18250.0,71,-11,18245,47,18255,63
2016-11-28 11:06:00,11:06:10,11:06:55,33321,33392,18245.0,39,18250.0,13,18250.0,18250.0,18245.0,18245.0,35,-5,18245,9,18250,52
2016-11-28 11:07:00,11:07:23,11:07:35,33404,33425,18240.0,53,18245.0,14,18245.0,18245.0,18245.0,18245.0,17,7,18240,53,18250,53
2016-11-28 11:08:00,11:08:00,11:08:46,33440,33499,18245.0,23,18250.0,40,18250.0,18250.0,18245.0,18245.0,35,-7,18240,53,18250,51
2016-11-28 11:09:00,11:09:26,11:09:27,33518,33526,18245.0,3,18250.0,52,18245.0,18245.0,18245.0,18245.0,7,3,18245,1,18250,53
2016-11-28 11:10:00,11:10:34,11:10:46,33555,33606,18245.0,35,18250.0,32,18250.0,18255.0,18250.0,18250.0,53,27,18250,3,18255,21
2016-11-28 11:11:00,11:11:00,11:11:48,33627,33694,18250.0,13,18255.0,48,18250.0,18255.0,18250.0,18255.0,30,2,18250,49,18255,2
2016-11-28 11:12:00,11:12:09,11:12:50,33703,33891,18250.0,49,18255.0,1,18255.0,18270.0,18255.0,18270.0,364,194,18265,54,18270,58
2016-11-28 11:13:00,11:13:00,11:13:39,33904,34040,18265.0,61,18270.0,56,18270.0,18275.0,18265.0,18270.0,299,105,18265,44,18270,38
2016-11-28 11:14:00,11:14:18,11:14:59,34057,34225,18265.0,43,18270.0,52,18270.0,18275.0,18265.0,18265.0,354,156,18265,19,18270,36
2016-11-28 11:15:00,11:15:00,11:15:00,34230,34231,18265.0,24,18270.0,36,18270.0,18270.0,18270.0,18270.0,3,3,18265,27,18270,32
2016-11-28 11:16:00,11:16:02,11:16:43,34270,34288,18265.0,26,18270.0,36,18265.0,18265.0,18265.0,18265.0,3,-3,18265,28,18270,30
2016-11-28 11:17:00,11:17:00,11:17:50,34294,34357,18265.0,34,18270.0,30,18270.0,18270.0,18265.0,18270.0,62,-40,18265,11,18270,30
2016-11-28 11:18:00,11:18:00,11:18:57,34365,34436,18265.0,10,18270.0,32,18270.0,18270.0,18265.0,18265.0,36,-32,18265,2,18270,41
2016-11-28 11:19:00,11:19:00,11:19:17,34440,34466,18265.0,1,18270.0,41,18265.0,18265.0,18265.0,18265.0,9,-9,18260,39,18265,26
2016-11-28 11:20:00,11:20:01,11:20:59,34495,34557,18260.0,15,18265.0,99,18260.0,18260.0,18260.0,18260.0,20,-20,18260,13,18265,52
2016-11-28 11:21:00,11:21:00,11:21:02,34560,34563,18260.0,13,18265.0,52,18260.0,18260.0,18260.0,18260.0,6,-6,18260,10,18265,55
2016-11-28 11:22:00,11:22:00,11:22:00,34593,34593,18260.0,21,18265.0,63,18260.0,18260.0,18260.0,18260.0,1,-1,18260,16,18265,62
2016-11-28 11:23:00,11:23:29,11:23:47,34635,34687,18260.0,48,18265.0,60,18260.0,18265.0,18260.0,18265.0,66,54,18260,60,18270,54
2016-11-28 11:24:00,11:24:05,11:24:40,34693,34710,18260.0,60,18265.0,9,18265.0,18265.0,18265.0,18265.0,9,7,18265,4,18270,46
2016-11-28 11:25:00,11:25:00,11:25:00,0,0,0.0,0,0.0,0,18265.0,18265.0,18265.0,18265.0,0,0,0,0,0,0
2016-11-28 11:26:00,11:26:00,11:26:32,34725,34807,18265.0,14,18270.0,46,18270.0,18275.0,18270.0,18270.0,99,-17,18270,13,18275,77
2016-11-28 11:27:00,11:27:00,11:27:54,34845,34895,18270.0,39,18275.0,50,18275.0,18275.0,18270.0,18270.0,26,24,18270,34,18275,35
2016-11-28 11:28:00,11:28:00,11:28:10,34902,34934,18270.0,34,18275.0,34,18275.0,18275.0,18270.0,18270.0,45,-37,18265,61,18270,1
2016-11-28 11:29:00,11:29:00,11:29:54,34956,35031,18265.0,27,18270.0,43,18265.0,18265.0,18265.0,18265.0,69,0,18260,66,18270,49
2016-11-28 11:30:00,11:30:05,11:30:58,35050,35200,18260.0,60,18265.0,24,18260.0,18270.0,18260.0,18270.0,106,-10,18265,50,18275,50
2016-11-28 11:31:00,11:31:02,11:31:49,35209,35324,18270.0,5,18275.0,50,18270.0,18275.0,18270.0,18275.0,92,-41,18270,25,18280,53
2016-11-28 11:32:00,11:32:00,11:32:47,35339,35400,18270.0,26,18275.0,44,18275.0,18275.0,18270.0,18270.0,25,-7,18270,16,18275,35
2016-11-28 11:33:00,11:33:00,11:33:48,35423,35510,18270.0,18,18275.0,57,18270.0,18275.0,18270.0,18275.0,57,-17,18270,42,18275,9
2016-11-28 11:34:00,11:34:06,11:34:50,35521,35585,18270.0,50,18275.0,18,18275.0,18275.0,18270.0,18270.0,36,4,18265,44,18270,7
2016-11-28 11:35:00,11:35:15,11:35:39,35614,35686,18265.0,45,18270.0,15,18270.0,18270.0,18265.0,18270.0,56,-23,18270,1,18275,58
2016-11-28 11:36:00,11:36:44,11:36:44,35736,35736,18270.0,34,18275.0,44,18270.0,18270.0,18270.0,18270.0,1,-1,18270,33,18275,43
2016-11-28 11:37:00,11:37:16,11:37:59,35748,35809,18270.0,31,18275.0,44,18270.0,18270.0,18270.0,18270.0,24,-10,18270,1,18275,64
2016-11-28 11:38:00,11:38:08,11:38:42,35816,35904,18270.0,6,18275.0,64,18275.0,18275.0,18270.0,18270.0,99,23,18265,50,18270,6
2016-11-28 11:39:00,11:39:13,11:39:57,35938,36008,18265.0,37,18270.0,32,18265.0,18265.0,18265.0,18265.0,39,-33,18260,45,18270,59
2016-11-28 11:40:00,11:40:04,11:40:17,36012,36029,18265.0,3,18270.0,59,18265.0,18265.0,18265.0,18265.0,9,-6,18260,45,18270,55
2016-11-28 11:41:00,11:41:21,11:41:29,36061,36077,18265.0,17,18270.0,56,18265.0,18265.0,18265.0,18265.0,21,-21,18260,45,18265,34
2016-11-28 11:42:00,11:42:00,11:42:49,36088,36182,18260.0,43,18265.0,39,18260.0,18275.0,18260.0,18275.0,81,51,18275,2,18280,54
2016-11-28 11:43:00,11:43:21,11:43:40,36210,36307,18275.0,18,18280.0,54,18275.0,18275.0,18270.0,18270.0,117,-102,18270,48,18275,36
2016-11-28 11:44:00,11:44:00,11:44:00,0,0,0.0,0,0.0,0,18270.0,18270.0,18270.0,18270.0,0,0,0,0,0,0
2016-11-28 11:45:00,11:45:10,11:45:14,36336,36372,18270.0,46,18275.0,42,18270.0,18270.0,18270.0,18270.0,71,-69,18265,48,18275,53
2016-11-28 11:46:00,11:46:17,11:46:56,36405,36462,18270.0,82,18275.0,12,18275.0,18275.0,18275.0,18275.0,106,106,18275,32,18280,32
2016-11-28 11:47:00,11:47:21,11:47:59,36488,36807,18275.0,62,18280.0,14,18280.0,18315.0,18280.0,18290.0,630,421,18290,21,18295,22
2016-11-28 11:48:00,11:48:03,11:48:54,36815,36909,18290.0,11,18295.0,42,18290.0,18295.0,18290.0,18295.0,42,6,18290,42,18295,29
2016-11-28 11:49:00,11:49:07,11:49:48,36932,37026,18290.0,61,18295.0,4,18295.0,18295.0,18290.0,18290.0,51,-7,18290,25,18295,48
2016-11-28 11:50:00,11:50:19,11:50:43,37067,37107,18290.0,10,18295.0,55,18290.0,18290.0,18290.0,18290.0,58,8,18290,12,18295,60
2016-11-28 11:51:00,11:51:30,11:51:30,37131,37141,18290.0,17,18295.0,82,18295.0,18295.0,18295.0,18295.0,50,50,18290,59,18295,26
2016-11-28 11:52:00,11:52:07,11:52:58,37173,37213,18290.0,28,18295.0,68,18290.0,18290.0,18290.0,18290.0,31,-31,18285,58,18290,4
2016-11-28 11:53:00,11:53:45,11:53:45,37257,37257,18285.0,66,18290.0,63,18285.0,18285.0,18285.0,18285.0,1,-1,18285,65,18290,65
2016-11-28 11:54:00,11:54:03,11:54:46,37267,37315,18285.0,89,18290.0,45,18290.0,18290.0,18290.0,18290.0,61,59,18290,29,18295,70
2016-11-28 11:55:00,11:55:03,11:55:58,37323,37342,18290.0,34,18295.0,70,18290.0,18290.0,18290.0,18290.0,3,-3,18290,40,18295,71
2016-11-28 11:56:00,11:56:02,11:56:59,37349,37446,18290.0,73,18295.0,46,18295.0,18295.0,18295.0,18295.0,118,-28,18295,3,18300,56
2016-11-28 11:57:00,11:57:03,11:57:59,37453,37590,18295.0,30,18300.0,57,18300.0,18310.0,18300.0,18305.0,97,57,18300,44,18305,37
2016-11-28 11:58:00,11:58:02,11:58:39,37597,37677,18300.0,64,18305.0,9,18305.0,18305.0,18300.0,18305.0,50,-40,18300,31,18305,64
2016-11-28 11:59:00,11:59:12,11:59:36,37694,37818,18300.0,34,18305.0,48,18305.0,18315.0,18305.0,18315.0,131,67,18310,30,18315,45
2016-11-28 12:00:00,12:00:18,12:00:59,37869,38038,18310.0,38,18315.0,47,18315.0,18320.0,18315.0,18315.0,165,11,18310,63,18315,29
2016-11-28 12:01:00,12:01:04,12:01:59,38046,38136,18310.0,63,18315.0,27,18315.0,18320.0,18315.0,18320.0,61,61,18315,56,18320,26
2016-11-28 12:02:00,12:02:00,12:02:53,38139,38316,18315.0,56,18320.0,26,18320.0,18320.0,18315.0,18315.0,169,-7,18315,8,18320,51
2016-11-28 12:03:00,12:03:00,12:03:58,38325,38499,18315.0,11,18320.0,54,18320.0,18320.0,18315.0,18320.0,145,-21,18320,10,18325,90
2016-11-28 12:04:00,12:04:01,12:04:59,38504,38671,18320.0,13,18325.0,90,18325.0,18325.0,18320.0,18320.0,142,-6,18320,23,18325,49
2016-11-28 12:05:00,12:05:02,12:05:55,38676,38840,18320.0,30,18325.0,50,18325.0,18325.0,18315.0,18315.0,141,-85,18315,9,18320,76
2016-11-28 12:06:00,12:06:00,12:06:59,38844,38939,18315.0,15,18320.0,76,18315.0,18320.0,18315.0,18315.0,70,-56,18310,75,18315,9
2016-11-28 12:07:00,12:07:06,12:07:45,38952,39011,18310.0,70,18315.0,36,18315.0,18315.0,18310.0,18310.0,39,-27,18305,29,18310,30
2016-11-28 12:08:00,12:08:03,12:08:38,39026,39100,18305.0,54,18310.0,23,18310.0,18315.0,18310.0,18315.0,62,-22,18310,47,18315,28
2016-11-28 12:09:00,12:09:56,12:09:57,39145,39148,18310.0,49,18315.0,42,18310.0,18315.0,18310.0,18315.0,2,0,18310,50,18315,51
2016-11-28 12:10:00,12:10:00,12:10:59,39153,39242,18310.0,46,18315.0,47,18315.0,18315.0,18305.0,18305.0,96,-28,18305,41,18310,40
2016-11-28 12:11:00,12:11:06,12:11:59,39253,39394,18305.0,41,18310.0,34,18310.0,18325.0,18310.0,18320.0,131,109,18320,108,18325,26
2016-11-28 12:12:00,12:12:05,12:12:57,39404,39498,18320.0,109,18325.0,26,18325.0,18325.0,18315.0,18315.0,148,-100,18315,24,18320,41
2016-11-28 12:13:00,12:13:07,12:13:48,39509,39584,18315.0,9,18320.0,92,18315.0,18320.0,18315.0,18320.0,92,61,18315,15,18320,68
2016-11-28 12:14:00,12:14:39,12:14:44,39619,39648,18315.0,46,18320.0,70,18320.0,18320.0,18315.0,18315.0,64,-62,18315,12,18320,68
2016-11-28 12:15:00,12:15:00,12:15:59,39663,39825,18315.0,16,18320.0,64,18315.0,18315.0,18310.0,18315.0,122,-24,18310,4,18315,51
2016-11-28 12:16:00,12:16:22,12:16:28,39850,39871,18310.0,8,18315.0,59,18310.0,18310.0,18310.0,18310.0,21,9,18310,34,18315,35
2016-11-28 12:17:00,12:17:00,12:17:34,39892,39949,18310.0,45,18315.0,37,18315.0,18315.0,18310.0,18310.0,34,-26,18305,57,18310,8
2016-11-28 12:18:00,12:18:22,12:18:45,39968,40016,18305.0,30,18310.0,37,18310.0,18310.0,18310.0,18310.0,44,16,18310,24,18315,56
2016-11-28 12:19:00,12:19:28,12:19:28,40039,40039,18310.0,28,18315.0,57,18310.0,18310.0,18310.0,18310.0,1,-1,18310,26,18315,60
2016-11-28 12:20:00,12:20:02,12:20:55,40060,40106,18310.0,34,18315.0,54,18310.0,18315.0,18310.0,18310.0,37,-31,18310,12,18315,58
2016-11-28 12:21:00,12:21:15,12:21:22,40119,40124,18310.0,16,18315.0,65,18310.0,18310.0,18310.0,18310.0,2,-2,18310,21,18315,59
2016-11-28 12:22:00,12:22:20,12:22:41,40143,40180,18310.0,17,18315.0,73,18315.0,18315.0,18310.0,18315.0,34,32,18315,11,18320,66
2016-11-28 12:23:00,12:23:03,12:23:50,40201,40303,18315.0,31,18320.0,67,18320.0,18320.0,18320.0,18320.0,90,-54,18315,45,18320,36
2016-11-28 12:24:00,12:24:51,12:24:51,40330,40336,18315.0,22,18320.0,48,18315.0,18315.0,18315.0,18315.0,14,-14,18310,34,18315,41
2016-11-28 12:25:00,12:25:01,12:25:54,40347,40391,18310.0,56,18315.0,29,18315.0,18315.0,18310.0,18315.0,22,20,18310,56,18315,25
2016-11-28 12:26:00,12:26:15,12:26:53,40398,40420,18310.0,58,18315.0,26,18310.0,18315.0,18310.0,18310.0,5,1,18310,54,18315,29
2016-11-28 12:27:00,12:27:14,12:27:57,40439,40499,18310.0,50,18315.0,35,18310.0,18310.0,18305.0,18305.0,46,-44,18305,26,18310,59
2016-11-28 12:28:00,12:28:07,12:28:53,40519,40656,18305.0,19,18310.0,53,18305.0,18305.0,18295.0,18295.0,194,-96,18290,65,18295,2
2016-11-28 12:29:00,12:29:02,12:29:56,40668,40766,18290.0,63,18295.0,21,18295.0,18295.0,18290.0,18290.0,126,-20,18290,50,18295,34
2016-11-28 12:30:00,12:30:05,12:30:49,40769,40933,18290.0,54,18295.0,31,18290.0,18295.0,18285.0,18295.0,189,-135,18295,4,18300,70
2016-11-28 12:31:00,12:31:03,12:31:53,40943,41069,18295.0,15,18300.0,66,18295.0,18295.0,18290.0,18290.0,111,-95,18290,9,18295,65
2016-11-28 12:32:00,12:32:11,12:32:45,41098,41183,18290.0,40,18295.0,47,18290.0,18305.0,18290.0,18290.0,146,116,18290,54,18295,26
2016-11-28 12:33:00,12:33:44,12:33:53,41223,41363,18290.0,50,18295.0,29,18290.0,18305.0,18290.0,18305.0,234,30,18300,37,18305,10
2016-11-28 12:34:00,12:34:02,12:34:50,41381,41514,18300.0,20,18305.0,34,18300.0,18305.0,18290.0,18295.0,107,-71,18295,16,18300,59
2016-11-28 12:35:00,12:35:00,12:35:32,41518,41605,18295.0,17,18300.0,59,18295.0,18295.0,18295.0,18295.0,85,-85,18290,53,18295,17
2016-11-28 12:36:00,12:36:30,12:36:52,41644,41674,18290.0,59,18295.0,28,18295.0,18300.0,18295.0,18300.0,16,16,18295,49,18300,54
2016-11-28 12:37:00,12:37:26,12:37:57,41703,41771,18295.0,36,18300.0,62,18295.0,18295.0,18290.0,18295.0,41,-21,18295,5,18300,69
2016-11-28 12:38:00,12:38:01,12:38:54,41778,41859,18295.0,14,18300.0,65,18295.0,18300.0,18295.0,18300.0,84,-2,18295,38,18300,32
2016-11-28 12:39:00,12:39:35,12:39:53,41886,41917,18295.0,38,18300.0,37,18295.0,18300.0,18295.0,18300.0,18,10,18295,59,18305,58
2016-11-28 12:40:00,12:40:12,12:40:55,41935,41989,18295.0,64,18300.0,17,18300.0,18305.0,18300.0,18305.0,42,36,18305,9,18310,46
2016-11-28 12:41:00,12:41:05,12:41:46,42002,42052,18305.0,25,18310.0,46,18305.0,18310.0,18305.0,18310.0,54,-38,18305,25,18310,39
2016-11-28 12:42:00,12:42:00,12:42:59,42067,42122,18305.0,32,18310.0,56,18310.0,18310.0,18305.0,18305.0,3,-1,18305,36,18310,56
2016-11-28 12:43:00,12:43:03,12:43:36,42127,42181,18305.0,30,18310.0,56,18310.0,18315.0,18305.0,18315.0,34,22,18310,13,18315,75
2016-11-28 12:44:00,12:44:27,12:44:44,42204,42218,18310.0,19,18315.0,73,18315.0,18315.0,18310.0,18315.0,10,8,18310,47,18315,50
2016-11-28 12:45:00,12:45:11,12:45:31,42249,42324,18310.0,10,18315.0,70,18310.0,18315.0,18305.0,18310.0,81,-23,18305,65,18310,1
2016-11-28 12:46:00,12:46:10,12:46:52,42356,42394,18305.0,59,18310.0,33,18305.0,18310.0,18305.0,18310.0,5,3,18305,56,18310,29
2016-11-28 12:47:00,12:47:18,12:47:49,42406,42461,18305.0,70,18310.0,26,18310.0,18320.0,18310.0,18320.0,101,101,18315,19,18320,45
2016-11-28 12:48:00,12:48:02,12:48:59,42471,42496,18315.0,20,18320.0,38,18315.0,18320.0,18315.0,18315.0,16,-6,18310,51,18315,39
2016-11-28 12:49:00,12:49:00,12:49:53,42501,42624,18310.0,45,18315.0,42,18310.0,18310.0,18310.0,18310.0,108,-50,18310,12,18315,67
2016-11-28 12:50:00,12:50:15,12:50:48,42646,42753,18310.0,26,18315.0,67,18315.0,18320.0,18315.0,18315.0,108,42,18315,8,18320,41
2016-11-28 12:51:00,12:51:04,12:51:55,42766,42808,18315.0,28,18320.0,43,18315.0,18320.0,18315.0,18315.0,4,-2,18315,38,18320,38
2016-11-28 12:52:00,12:52:07,12:52:48,42825,42890,18315.0,49,18320.0,32,18320.0,18320.0,18315.0,18320.0,27,25,18315,46,18320,52
2016-11-28 12:53:00,12:53:18,12:53:45,42904,42931,18315.0,31,18320.0,54,18315.0,18320.0,18315.0,18315.0,9,-1,18315,26,18320,50
2016-11-28 12:54:00,12:54:16,12:54:35,42949,42986,18315.0,45,18320.0,29,18320.0,18320.0,18315.0,18315.0,43,-31,18315,25,18320,56
2016-11-28 12:55:00,12:55:13,12:55:24,43015,43045,18315.0,43,18320.0,36,18320.0,18320.0,18320.0,18320.0,42,-20,18320,1,18325,65
2016-11-28 12:56:00,12:56:18,12:56:19,43098,43126,18320.0,43,18325.0,54,18320.0,18320.0,18320.0,18320.0,38,-38,18315,67,18325,75
2016-11-28 12:57:00,12:57:04,12:57:56,43165,43216,18320.0,94,18325.0,56,18320.0,18325.0,18320.0,18325.0,23,13,18325,11,18325,28
2016-11-28 12:58:00,12:58:04,12:58:57,43218,43335,18320.0,90,18325.0,28,18325.0,18335.0,18325.0,18335.0,137,135,18330,82,18335,24
2016-11-28 12:59:00,12:59:04,12:59:48,43346,43583,18330.0,61,18335.0,64,18335.0,18345.0,18330.0,18345.0,283,144,18340,33,18345,74
2016-11-28 13:00:00,13:00:02,13:00:41,43595,43718,18340.0,99,18345.0,52,18345.0,18350.0,18340.0,18340.0,164,-12,18340,29,18345,48
2016-11-28 13:01:00,13:01:09,13:01:57,43739,43807,18340.0,48,18345.0,49,18345.0,18345.0,18340.0,18340.0,61,-20,18340,3,18345,76
2016-11-28 13:02:00,13:02:02,13:02:21,43811,43923,18340.0,5,18345.0,76,18340.0,18340.0,18335.0,18340.0,126,-24,18335,42,18340,6
2016-11-28 13:03:00,13:03:05,13:03:54,43956,43997,18335.0,40,18340.0,43,18335.0,18340.0,18335.0,18335.0,14,-4,18335,34,18340,39
2016-11-28 13:04:00,13:04:20,13:04:53,44006,44034,18335.0,35,18340.0,42,18335.0,18340.0,18335.0,18335.0,12,-4,18335,37,18340,37
2016-11-28 13:05:00,13:05:00,13:05:27,44039,44060,18335.0,43,18340.0,37,18335.0,18340.0,18335.0,18340.0,9,-1,18335,31,18340,40
2016-11-28 13:06:00,13:06:09,13:06:57,44079,44146,18335.0,35,18340.0,44,18335.0,18340.0,18335.0,18340.0,64,44,18340,10,18345,46
2016-11-28 13:07:00,13:07:20,13:07:42,44158,44202,18340.0,24,18345.0,48,18340.0,18340.0,18340.0,18340.0,37,-37,18340,39,18345,48
2016-11-28 13:08:00,13:08:04,13:08:58,44221,44318,18340.0,23,18345.0,48,18340.0,18345.0,18340.0,18345.0,80,8,18340,72,18345,13
2016-11-28 13:09:00,13:09:04,13:09:54,44327,44444,18340.0,44,18345.0,60,18340.0,18345.0,18340.0,18345.0,122,-22,18345,12,18350,63
2016-11-28 13:10:00,13:10:02,13:10:38,44456,44491,18345.0,20,18350.0,68,18345.0,18345.0,18345.0,18345.0,21,-21,18345,8,18350,69
2016-11-28 13:11:00,13:11:02,13:11:43,44508,44582,18345.0,9,18350.0,70,18345.0,18345.0,18340.0,18340.0,65,-31,18340,21,18345,34
2016-11-28 13:12:00,13:12:23,13:12:50,44612,44645,18340.0,37,18345.0,58,18340.0,18340.0,18340.0,18340.0,33,-25,18335,41,18340,47
2016-11-28 13:13:00,13:13:17,13:13:47,44663,44678,18335.0,44,18340.0,48,18335.0,18340.0,18335.0,18340.0,8,4,18335,46,18340,43
2016-11-28 13:14:00,13:14:01,13:14:44,44692,44708,18335.0,46,18340.0,44,18335.0,18340.0,18335.0,18340.0,5,3,18335,43,18340,40
2016-11-28 13:15:00,13:15:00,13:15:26,44717,44845,18335.0,41,18340.0,46,18335.0,18340.0,18335.0,18340.0,166,-52,18335,64,18345,40
2016-11-28 13:16:00,13:16:03,13:16:56,44887,44978,18340.0,12,18345.0,61,18340.0,18340.0,18330.0,18330.0,58,-55,18330,55,18335,35
2016-11-28 13:17:00,13:17:41,13:17:58,45008,45067,18330.0,60,18335.0,39,18335.0,18340.0,18330.0,18335.0,51,15,18330,73,18335,1
2016-11-28 13:18:00,13:18:05,13:18:51,45079,45141,18330.0,70,18335.0,16,18335.0,18335.0,18330.0,18335.0,51,35,18330,68,18335,3
2016-11-28 13:19:00,13:19:00,13:19:57,45159,45272,18330.0,63,18335.0,1,18335.0,18335.0,18335.0,18335.0,100,76,18330,75,18340,67
2016-11-28 13:20:00,13:20:04,13:20:53,45282,45336,18335.0,1,18340.0,67,18335.0,18340.0,18335.0,18340.0,19,1,18335,20,18340,64
2016-11-28 13:21:00,13:21:26,13:21:54,45352,45421,18335.0,34,18340.0,63,18340.0,18345.0,18340.0,18345.0,57,39,18340,1,18345,63
2016-11-28 13:22:00,13:22:05,13:22:17,45427,45451,18340.0,3,18345.0,58,18340.0,18340.0,18340.0,18340.0,22,2,18335,63,18345,64
2016-11-28 13:23:00,13:23:02,13:23:44,45475,45554,18335.0,59,18340.0,31,18335.0,18335.0,18335.0,18335.0,68,-62,18330,71,18335,11
2016-11-28 13:24:00,13:24:02,13:24:59,45572,45601,18330.0,68,18335.0,29,18330.0,18335.0,18330.0,18335.0,7,1,18330,63,18335,40
2016-11-28 13:25:00,13:25:04,13:25:51,45607,45695,18330.0,62,18335.0,40,18330.0,18335.0,18330.0,18335.0,96,-18,18335,4,18340,63
2016-11-28 13:26:00,13:26:12,13:26:47,45709,45738,18335.0,18,18340.0,60,18335.0,18340.0,18335.0,18335.0,20,-12,18330,69,18335,21
2016-11-28 13:27:00,13:27:12,13:27:30,45752,45790,18330.0,69,18335.0,13,18330.0,18335.0,18330.0,18330.0,17,-5,18330,41,18335,55
2016-11-28 13:28:00,13:28:31,13:28:59,45818,45872,18330.0,72,18335.0,30,18330.0,18335.0,18330.0,18335.0,43,37,18335,28,18340,49
2016-11-28 13:29:00,13:29:12,13:29:54,45892,46034,18335.0,28,18340.0,56,18335.0,18335.0,18330.0,18330.0,198,-178,18325,67,18330,4
2016-11-28 13:30:00,13:30:01,13:30:58,46054,46142,18325.0,57,18330.0,17,18330.0,18330.0,18330.0,18330.0,81,55,18325,68,18330,1
2016-11-28 13:31:00,13:31:01,13:31:16,46149,46175,18330.0,13,18335.0,58,18330.0,18330.0,18325.0,18325.0,21,-19,18325,62,18330,30
2016-11-28 13:32:00,13:32:22,13:32:54,46214,46268,18325.0,67,18330.0,33,18330.0,18330.0,18325.0,18325.0,53,-45,18320,56,18325,27
2016-11-28 13:33:00,13:33:26,13:33:26,46288,46289,18320.0,68,18325.0,50,18320.0,18320.0,18320.0,18320.0,2,-2,18320,62,18325,51
2016-11-28 13:34:00,13:34:17,13:34:59,46321,46467,18320.0,70,18325.0,42,18325.0,18330.0,18320.0,18330.0,240,176,18330,10,18335,56
2016-11-28 13:35:00,13:35:00,13:35:59,46470,46582,18330.0,10,18335.0,56,18330.0,18330.0,18325.0,18325.0,101,-101,18325,8,18330,53
2016-11-28 13:36:00,13:36:06,13:36:40,46588,46636,18325.0,10,18330.0,54,18325.0,18325.0,18325.0,18325.0,46,0,18320,69,18330,52
2016-11-28 13:37:00,13:37:04,13:37:49,46649,46673,18325.0,51,18330.0,54,18330.0,18330.0,18325.0,18330.0,8,4,18325,59,18330,44
2016-11-28 13:38:00,13:38:05,13:38:59,46682,46754,18325.0,61,18330.0,42,18330.0,18330.0,18325.0,18330.0,57,-3,18325,73,18330,35
2016-11-28 13:39:00,13:39:02,13:39:26,46758,46782,18325.0,70,18330.0,35,18330.0,18330.0,18330.0,18330.0,3,1,18330,39,18335,55
2016-11-28 13:40:00,13:40:02,13:40:56,46803,46858,18330.0,29,18335.0,63,18330.0,18330.0,18325.0,18330.0,29,-27,18330,26,18335,70
2016-11-28 13:41:00,13:41:11,13:41:59,46867,46943,18330.0,25,18335.0,69,18335.0,18335.0,18325.0,18330.0,77,11,18325,69,18330,5
2016-11-28 13:42:00,13:42:00,13:42:40,46946,47006,18325.0,69,18330.0,5,18330.0,18330.0,18325.0,18330.0,36,-4,18325,39,18330,67
2016-11-28 13:43:00,13:43:05,13:43:47,47023,47091,18325.0,45,18330.0,74,18330.0,18330.0,18325.0,18325.0,45,-30,18325,47,18330,63
2016-11-28 13:44:00,13:44:16,13:44:54,47105,47137,18325.0,52,18330.0,62,18325.0,18330.0,18325.0,18325.0,15,-7,18325,45,18330,56
2016-11-28 13:45:00,13:45:03,13:45:58,47150,47295,18325.0,128,18330.0,21,18330.0,18335.0,18330.0,18335.0,156,47,18330,73,18335,4
2016-11-28 13:46:00,13:46:00,13:46:58,47299,47365,18330.0,67,18335.0,5,18335.0,18335.0,18330.0,18335.0,56,10,18330,94,18335,5
2016-11-28 13:47:00,13:47:21,13:47:59,47383,47459,18330.0,88,18335.0,12,18335.0,18340.0,18335.0,18340.0,42,23,18335,78,18340,4
2016-11-28 13:48:00,13:48:13,13:48:48,47483,47550,18335.0,78,18340.0,9,18340.0,18345.0,18340.0,18345.0,21,19,18340,59,18345,47
2016-11-28 13:49:00,13:49:05,13:49:36,47570,47684,18340.0,79,18345.0,41,18345.0,18345.0,18335.0,18335.0,140,-47,18335,32,18340,36
2016-11-28 13:50:00,13:50:40,13:50:51,47714,47739,18335.0,56,18340.0,54,18340.0,18345.0,18340.0,18340.0,23,21,18340,58,18345,64
2016-11-28 13:51:00,13:51:16,13:51:37,47759,47927,18340.0,70,18345.0,59,18345.0,18355.0,18345.0,18350.0,220,102,18350,12,18355,73
2016-11-28 13:52:00,13:52:09,13:52:57,47966,48046,18350.0,71,18355.0,54,18355.0,18355.0,18350.0,18355.0,61,59,18355,23,18360,75
2016-11-28 13:53:00,13:53:02,13:53:59,48061,48262,18355.0,71,18360.0,52,18360.0,18365.0,18355.0,18365.0,220,8,18360,72,18365,42
2016-11-28 13:54:00,13:54:04,13:54:58,48271,48445,18360.0,74,18365.0,47,18365.0,18370.0,18360.0,18370.0,214,148,18365,39,18370,67
2016-11-28 13:55:00,13:55:02,13:55:59,48456,48675,18365.0,46,18370.0,72,18365.0,18370.0,18365.0,18370.0,224,-50,18365,48,18370,51
2016-11-28 13:56:00,13:56:06,13:56:55,48693,48837,18365.0,71,18370.0,46,18365.0,18375.0,18365.0,18365.0,130,54,18365,78,18370,73
2016-11-28 13:57:00,13:57:01,13:57:56,48847,49143,18365.0,84,18370.0,62,18370.0,18375.0,18370.0,18375.0,358,100,18370,100,18375,38
2016-11-28 13:58:00,13:58:00,13:58:59,49152,49375,18370.0,88,18375.0,51,18375.0,18375.0,18365.0,18365.0,229,82,18365,124,18370,5
2016-11-28 13:59:00,13:59:00,13:59:59,49379,49759,18365.0,120,18370.0,5,18370.0,18370.0,18355.0,18355.0,477,-236,18350,110,18355,12
2016-11-28 14:00:00,14:00:00,14:00:53,49760,50222,18355.0,73,18360.0,42,18360.0,18360.0,18345.0,18355.0,743,-127,18350,75,18355,109
2016-11-28 14:01:00,14:01:00,14:01:53,50234,50482,18350.0,76,18355.0,111,18355.0,18360.0,18350.0,18355.0,406,148,18355,35,18360,97
2016-11-28 14:02:00,14:02:00,14:02:59,50493,50757,18355.0,40,18360.0,97,18360.0,18365.0,18350.0,18355.0,321,-69,18350,151,18355,8
2016-11-28 14:03:00,14:03:03,14:03:58,50769,50925,18350.0,144,18355.0,37,18355.0,18355.0,18350.0,18350.0,177,64,18350,72,18355,179
2016-11-28 14:04:00,14:04:00,14:04:58,50929,51203,18350.0,78,18355.0,185,18355.0,18360.0,18350.0,18360.0,388,9,18355,22,18360,87
2016-11-28 14:05:00,14:05:02,14:05:59,51210,51339,18355.0,22,18360.0,89,18355.0,18360.0,18350.0,18355.0,82,-4,18350,73,18355,67
2016-11-28 14:06:00,14:06:03,14:06:14,51347,51393,18350.0,67,18355.0,70,18350.0,18355.0,18350.0,18350.0,69,-59,18350,56,18355,96
2016-11-28 14:07:00,14:07:00,14:07:58,51422,51536,18350.0,38,18355.0,125,18355.0,18355.0,18345.0,18350.0,119,-61,18345,111,18350,53
2016-11-28 14:08:00,14:08:04,14:08:20,51546,51667,18345.0,110,18350.0,59,18350.0,18360.0,18345.0,18355.0,317,249,18350,105,18355,2
