,ST,ET,sidx,eidx,bB,bBS,bA,bAS,O,H,L,C,V,OF,eB,eBS,eA,eAS
2016-07-25 08:00:00,08:00:00,08:00:52,1699,2227,16650.0,1,16655.0,39,16655.0,16655.0,16630.0,16640.0,705,14,16635,22,16640,36
2016-07-25 08:01:00,08:01:00,08:01:59,2242,2477,16635.0,27,16640.0,31,16640.0,16645.0,16630.0,16635.0,256,104,16635,7,16635,7
2016-07-25 08:02:00,08:02:00,08:02:43,2483,2645,16635.0,10,16640.0,37,16640.0,16645.0,16630.0,16645.0,157,111,16640,23,16645,9
2016-07-25 08:03:00,08:03:00,08:03:59,2673,2873,16640.0,28,16645.0,13,16645.0,16655.0,16640.0,16655.0,171,107,16650,20,16655,19
2016-07-25 08:04:00,08:04:06,08:04:56,2895,3094,16650.0,28,16655.0,15,16655.0,16660.0,16655.0,16655.0,147,72,16655,38,16660,23
2016-07-25 08:05:00,08:05:00,08:05:59,3102,3436,16655.0,44,16660.0,22,16660.0,16675.0,16660.0,16675.0,305,158,16670,33,16675,14
2016-07-25 08:06:00,08:06:00,08:06:59,3438,3749,16670.0,27,16675.0,14,16675.0,16690.0,16675.0,16690.0,326,210,16675,58,16690,34
2016-07-25 08:07:00,08:07:01,08:07:57,3752,4055,16685.0,28,16690.0,35,16685.0,16690.0,16675.0,16685.0,270,31,16680,29,16685,3
2016-07-25 08:08:00,08:08:03,08:08:49,4065,4261,16680.0,13,16685.0,34,16685.0,16690.0,16680.0,16690.0,147,83,16685,33,16695,39
2016-07-25 08:09:00,08:09:07,08:09:57,4298,4519,16690.0,8,16695.0,32,16690.0,16695.0,16685.0,16695.0,197,118,16690,18,16695,13
2016-07-25 08:10:00,08:10:00,08:10:48,4524,4727,16690.0,18,16695.0,25,16690.0,16690.0,16680.0,16680.0,200,-50,16675,69,16680,33
2016-07-25 08:11:00,08:11:03,08:11:59,4745,4939,16675.0,78,16680.0,19,16680.0,16680.0,16670.0,16675.0,201,-10,16670,50,16675,4
2016-07-25 08:12:00,08:12:19,08:12:59,4962,5068,16670.0,46,16675.0,18,16675.0,16680.0,16670.0,16670.0,64,6,16670,30,16675,33
2016-07-25 08:13:00,08:13:01,08:13:59,5074,5389,16670.0,25,16675.0,36,16670.0,16670.0,16655.0,16660.0,350,-113,16655,39,16660,11
2016-07-25 08:14:00,08:14:00,08:14:58,5394,5737,16655.0,37,16660.0,16,16660.0,16660.0,16650.0,16660.0,323,82,16660,5,16665,28
2016-07-25 08:15:00,08:15:00,08:15:52,5741,5920,16660.0,6,16665.0,28,16660.0,16660.0,16650.0,16660.0,165,47,16660,24,16665,32
2016-07-25 08:16:00,08:16:03,08:16:51,5937,6125,16660.0,46,16665.0,19,16665.0,16675.0,16665.0,16670.0,153,25,16665,29,16670,23
2016-07-25 08:17:00,08:17:00,08:17:58,6136,6341,16665.0,9,16670.0,37,16665.0,16670.0,16660.0,16665.0,166,-29,16665,1,16665,19
2016-07-25 08:18:00,08:18:04,08:18:59,6357,6572,16660.0,29,16665.0,24,16665.0,16680.0,16660.0,16675.0,264,-51,16675,23,16680,55
2016-07-25 08:19:00,08:19:16,08:19:58,6599,6753,16675.0,31,16680.0,35,16680.0,16685.0,16680.0,16680.0,205,89,16675,28,16680,16
2016-07-25 08:20:00,08:20:12,08:20:50,6767,6952,16675.0,25,16680.0,19,16680.0,16685.0,16675.0,16685.0,202,75,16680,35,16685,6
2016-07-25 08:21:00,08:21:01,08:21:43,6976,7067,16680.0,28,16685.0,31,16680.0,16680.0,16675.0,16680.0,80,-24,16675,15,16680,30
2016-07-25 08:22:00,08:22:05,08:22:59,7087,7285,16675.0,13,16680.0,34,16675.0,16680.0,16675.0,16675.0,149,77,16670,30,16675,3
2016-07-25 08:23:00,08:23:01,08:23:59,7289,7440,16670.0,34,16675.0,3,16675.0,16675.0,16670.0,16670.0,73,5,16665,37,16670,18
2016-07-25 08:24:00,08:24:13,08:24:59,7458,7588,16665.0,38,16670.0,33,16670.0,16675.0,16660.0,16665.0,109,-7,16660,34,16665,13
2016-07-25 08:25:00,08:25:02,08:25:55,7598,7724,16660.0,29,16665.0,19,16665.0,16670.0,16660.0,16665.0,94,30,16665,18,16670,29
2016-07-25 08:26:00,08:26:01,08:26:57,7731,7811,16665.0,22,16670.0,29,16670.0,16670.0,16665.0,16665.0,44,-20,16660,36,16670,25
2016-07-25 08:27:00,08:27:01,08:27:58,7816,8041,16660.0,37,16670.0,25,16670.0,16670.0,16660.0,16665.0,166,-19,16660,31,16665,7
2016-07-25 08:28:00,08:28:02,08:28:59,8050,8185,16660.0,28,16665.0,14,16665.0,16670.0,16660.0,16660.0,86,28,16660,27,16665,17
2016-07-25 08:29:00,08:29:02,08:29:58,8190,8314,16660.0,27,16665.0,23,16665.0,16670.0,16660.0,16670.0,79,23,16670,14,16675,29
2016-07-25 08:30:00,08:30:01,08:30:48,8322,8456,16670.0,16,16675.0,34,16675.0,16680.0,16670.0,16680.0,100,38,16675,19,16680,35
2016-07-25 08:31:00,08:31:01,08:31:48,8478,8573,16675.0,20,16680.0,35,16675.0,16675.0,16670.0,16670.0,76,-12,16670,20,16675,21
2016-07-25 08:32:00,08:32:01,08:32:59,8581,8714,16670.0,27,16675.0,20,16675.0,16675.0,16650.0,16650.0,98,-70,16650,29,16655,31
2016-07-25 08:33:00,08:33:03,08:33:51,8726,8849,16650.0,32,16655.0,33,16650.0,16665.0,16650.0,16660.0,118,58,16655,49,16660,27
2016-07-25 08:34:00,08:34:08,08:34:59,8859,8988,16655.0,40,16660.0,31,16660.0,16665.0,16655.0,16665.0,157,115,16665,14,16670,53
2016-07-25 08:35:00,08:35:03,08:35:32,8997,9049,16665.0,15,16670.0,52,16665.0,16665.0,16660.0,16665.0,42,-6,16660,29,16665,25
2016-07-25 08:36:00,08:36:01,08:36:49,9063,9188,16660.0,40,16665.0,16,16665.0,16665.0,16660.0,16660.0,141,45,16660,13,16665,34
2016-07-25 08:37:00,08:37:00,08:37:55,9199,9317,16655.0,34,16660.0,33,16660.0,16660.0,16655.0,16655.0,98,4,16650,34,16655,11
2016-07-25 08:38:00,08:38:04,08:38:54,9331,9498,16650.0,34,16655.0,13,16655.0,16660.0,16650.0,16650.0,186,-59,16650,16,16655,32
2016-07-25 08:39:00,08:39:02,08:39:25,9506,9554,16650.0,20,16655.0,25,16650.0,16655.0,16650.0,16655.0,34,-2,16650,18,16655,30
2016-07-25 08:40:00,08:40:12,08:40:49,9578,9750,16650.0,14,16655.0,36,16650.0,16655.0,16645.0,16655.0,223,-15,16655,25,16655,40
2016-07-25 08:41:00,08:41:05,08:41:57,9764,9857,16650.0,21,16655.0,49,16650.0,16650.0,16640.0,16640.0,57,-13,16640,13,16645,40
2016-07-25 08:42:00,08:42:13,08:42:57,9876,10195,16640.0,21,16645.0,36,16640.0,16640.0,16620.0,16630.0,361,-176,16625,39,16630,12
2016-07-25 08:43:00,08:43:02,08:43:55,10206,10396,16625.0,37,16630.0,21,16630.0,16635.0,16625.0,16635.0,150,50,16630,50,16635,3
2016-07-25 08:44:00,08:44:10,08:44:55,10421,10601,16630.0,32,16635.0,30,16630.0,16630.0,16630.0,16630.0,191,23,16625,36,16630,4
2016-07-25 08:45:00,08:45:12,08:45:59,10628,10794,16625.0,23,16630.0,27,16625.0,16630.0,16620.0,16630.0,196,129,16625,39,16630,1
2016-07-25 08:46:00,08:46:12,08:46:45,10819,10973,16625.0,46,16630.0,12,16630.0,16640.0,16630.0,16640.0,142,80,16635,37,16640,12
2016-07-25 08:47:00,08:47:02,08:47:54,10993,11135,16635.0,28,16640.0,27,16635.0,16635.0,16635.0,16635.0,123,-25,16635,5,16640,26
2016-07-25 08:48:00,08:48:19,08:48:59,11147,11215,16635.0,26,16640.0,23,16640.0,16650.0,16640.0,16650.0,35,33,16645,25,16650,32
2016-07-25 08:49:00,08:49:09,08:49:53,11221,11312,16645.0,24,16650.0,29,16645.0,16645.0,16640.0,16640.0,64,-28,16640,25,16645,22
2016-07-25 08:50:00,08:50:14,08:50:56,11338,11427,16640.0,32,16645.0,11,16645.0,16645.0,16645.0,16645.0,64,18,16640,38,16650,34
2016-07-25 08:51:00,08:51:00,08:51:52,11433,11544,16640.0,40,16650.0,34,16645.0,16650.0,16645.0,16645.0,96,51,16645,5,16650,30
2016-07-25 08:52:00,08:52:04,08:52:46,11556,11634,16645.0,11,16650.0,32,16645.0,16650.0,16645.0,16650.0,49,8,16650,27,16655,18
2016-07-25 08:53:00,08:53:05,08:53:56,11658,11769,16650.0,19,16655.0,31,16650.0,16655.0,16650.0,16655.0,61,-3,16650,35,16660,32
2016-07-25 08:54:00,08:54:00,08:54:55,11773,11934,16650.0,37,16660.0,32,16655.0,16660.0,16650.0,16650.0,125,-45,16650,10,16655,27
2016-07-25 08:55:00,08:55:02,08:55:58,11957,12423,16650.0,21,16655.0,33,16650.0,16680.0,16645.0,16665.0,491,22,16665,12,16670,34
2016-07-25 08:56:00,08:56:01,08:56:55,12431,12636,16665.0,13,16670.0,31,16665.0,16680.0,16665.0,16680.0,129,51,16680,37,16685,10
2016-07-25 08:57:00,08:57:03,08:57:58,12657,12844,16680.0,30,16685.0,25,16685.0,16685.0,16675.0,16680.0,186,42,16680,17,16685,33
2016-07-25 08:58:00,08:58:21,08:58:59,12878,13001,16680.0,29,16685.0,31,16680.0,16680.0,16675.0,16675.0,108,-96,16675,34,16680,6
2016-07-25 08:59:00,08:59:01,08:59:57,13005,13148,16680.0,2,16685.0,54,16680.0,16680.0,16670.0,16675.0,79,3,16670,51,16680,34
2016-07-25 09:00:00,09:00:02,09:00:57,13158,13291,16675.0,5,16680.0,32,16675.0,16685.0,16675.0,16685.0,84,11,16685,16,16690,23
2016-07-25 09:01:00,09:01:07,09:01:55,13311,13535,16685.0,27,16690.0,24,16685.0,16700.0,16685.0,16695.0,258,44,16690,41,16695,1
2016-07-25 09:02:00,09:02:02,09:02:46,13547,13640,16690.0,37,16695.0,19,16690.0,16690.0,16685.0,16685.0,50,-20,16685,51,16690,30
2016-07-25 09:03:00,09:03:02,09:03:54,13662,13828,16685.0,55,16690.0,44,16685.0,16710.0,16685.0,16710.0,187,145,16705,82,16710,9
2016-07-25 09:04:00,09:04:00,09:04:56,13845,14218,16705.0,94,16710.0,19,16710.0,16735.0,16710.0,16735.0,566,332,16730,63,16735,29
2016-07-25 09:05:00,09:05:00,09:05:55,14228,14958,16730.0,70,16735.0,79,16735.0,16760.0,16735.0,16750.0,1168,386,16745,28,16750,41
2016-07-25 09:06:00,09:06:02,09:06:59,14971,15252,16745.0,25,16750.0,35,16750.0,16755.0,16745.0,16755.0,236,-46,16750,18,16755,24
2016-07-25 09:07:00,09:07:01,09:07:59,15258,15688,16750.0,22,16755.0,20,16750.0,16765.0,16745.0,16745.0,573,154,16740,70,16745,18
2016-07-25 09:08:00,09:08:00,09:08:51,15691,15985,16740.0,70,16745.0,18,16740.0,16745.0,16735.0,16740.0,372,70,16740,28,16745,17
2016-07-25 09:09:00,09:09:04,09:09:54,16002,16268,16740.0,49,16745.0,7,16745.0,16750.0,16735.0,16735.0,286,24,16730,41,16735,8
2016-07-25 09:10:00,09:10:01,09:10:54,16282,16510,16730.0,36,16735.0,18,16735.0,16750.0,16735.0,16745.0,214,134,16740,29,16750,37
2016-07-25 09:11:00,09:11:06,09:11:31,16525,16572,16740.0,33,16745.0,5,16745.0,16745.0,16740.0,16740.0,20,-10,16740,27,16745,15
2016-07-25 09:12:00,09:12:13,09:12:59,16598,16710,16740.0,25,16745.0,38,16745.0,16745.0,16740.0,16740.0,113,43,16735,39,16745,30
2016-07-25 09:13:00,09:13:28,09:13:59,16740,16850,16735.0,41,16740.0,21,16740.0,16745.0,16740.0,16740.0,119,45,16735,44,16740,3
2016-07-25 09:14:00,09:14:00,09:14:48,16853,17030,16735.0,44,16740.0,3,16740.0,16740.0,16735.0,16735.0,216,-47,16730,33,16740,81
2016-07-25 09:15:00,09:15:03,09:15:55,17047,17256,16730.0,27,16735.0,29,16735.0,16745.0,16735.0,16740.0,272,92,16735,56,16740,9
2016-07-25 09:16:00,09:16:04,09:16:56,17265,17392,16735.0,54,16740.0,12,16740.0,16745.0,16740.0,16745.0,155,25,16740,47,16745,4
2016-07-25 09:17:00,09:17:21,09:17:59,17414,17511,16740.0,37,16745.0,26,16745.0,16745.0,16740.0,16740.0,121,9,16735,40,16740,23
2016-07-25 09:18:00,09:18:25,09:18:58,17536,17590,16735.0,47,16740.0,35,16735.0,16735.0,16730.0,16735.0,68,-42,16730,24,16735,27
2016-07-25 09:19:00,09:19:04,09:19:59,17597,17705,16730.0,32,16735.0,21,16730.0,16730.0,16725.0,16730.0,66,-30,16725,37,16730,26
2016-07-25 09:20:00,09:20:05,09:20:56,17715,17903,16725.0,36,16730.0,29,16725.0,16730.0,16720.0,16730.0,190,-60,16730,6,16735,36
2016-07-25 09:21:00,09:21:08,09:21:58,17914,17985,16730.0,13,16735.0,37,16730.0,16735.0,16730.0,16735.0,53,9,16730,26,16735,18
2016-07-25 09:22:00,09:22:11,09:22:45,17997,18113,16730.0,20,16735.0,40,16730.0,16730.0,16720.0,16720.0,76,-44,16720,16,16725,40
2016-07-25 09:23:00,09:23:08,09:23:54,18136,18231,16720.0,14,16725.0,38,16720.0,16720.0,16720.0,16720.0,37,-37,16720,25,16725,34
2016-07-25 09:24:00,09:24:20,09:24:56,18255,18388,16720.0,21,16725.0,38,16720.0,16725.0,16715.0,16725.0,119,-21,16720,51,16725,2
2016-07-25 09:25:00,09:25:00,09:25:54,18395,18474,16720.0,47,16725.0,1,16725.0,16725.0,16720.0,16725.0,23,17,16720,34,16725,32
2016-07-25 09:26:00,09:26:11,09:26:54,18492,18586,16720.0,38,16725.0,29,16720.0,16725.0,16720.0,16725.0,67,21,16725,9,16730,30
2016-07-25 09:27:00,09:27:24,09:27:43,18622,18641,16725.0,22,16730.0,24,16725.0,16730.0,16725.0,16730.0,2,0,16725,23,16730,24
2016-07-25 09:28:00,09:28:34,09:28:58,18684,18740,16725.0,11,16730.0,47,16725.0,16725.0,16720.0,16725.0,56,0,16720,40,16725,6
2016-07-25 09:29:00,09:29:02,09:29:54,18746,18876,16720.0,40,16725.0,2,16725.0,16725.0,16720.0,16720.0,86,-10,16715,18,16720,34
2016-07-25 09:30:00,09:30:00,09:30:52,18885,19066,16715.0,20,16720.0,44,16715.0,16725.0,16710.0,16725.0,178,80,16725,8,16730,31
2016-07-25 09:31:00,09:31:35,09:31:35,19109,19109,16725.0,34,16730.0,32,16725.0,16725.0,16725.0,16725.0,2,-2,16725,33,16730,30
2016-07-25 09:32:00,09:32:02,09:32:44,19146,19263,16725.0,36,16730.0,25,16725.0,16725.0,16720.0,16725.0,112,-30,16725,18,16730,22
2016-07-25 09:33:00,09:33:03,09:33:52,19290,19467,16725.0,33,16730.0,24,16730.0,16730.0,16715.0,16715.0,227,-132,16715,2,16720,37
2016-07-25 09:34:00,09:34:05,09:34:59,19483,19651,16715.0,19,16720.0,42,16720.0,16720.0,16705.0,16710.0,195,-32,16710,26,16715,62
2016-07-25 09:35:00,09:35:05,09:35:55,19662,19853,16710.0,25,16715.0,58,16710.0,16710.0,16700.0,16705.0,181,-49,16705,58,16710,24
2016-07-25 09:36:00,09:36:01,09:36:47,19861,20088,16705.0,68,16710.0,28,16710.0,16710.0,16700.0,16705.0,304,-167,16705,5,16710,40
2016-07-25 09:37:00,09:37:02,09:37:58,20097,20421,16705.0,9,16710.0,43,16705.0,16705.0,16675.0,16680.0,431,-280,16675,29,16680,14
2016-07-25 09:38:00,09:38:01,09:38:59,20431,20738,16675.0,19,16680.0,37,16675.0,16680.0,16675.0,16680.0,441,-211,16680,6,16685,36
2016-07-25 09:39:00,09:39:00,09:39:58,20739,20905,16675.0,85,16680.0,7,16680.0,16685.0,16680.0,16680.0,185,-52,16675,83,16680,38
2016-07-25 09:40:00,09:40:00,09:40:59,20909,21122,16675.0,83,16680.0,36,16680.0,16685.0,16680.0,16680.0,280,-125,16680,1,16680,6
2016-07-25 09:41:00,09:41:00,09:41:55,21124,21272,16680.0,1,16685.0,48,16680.0,16685.0,16675.0,16685.0,184,102,16680,45,16685,3
2016-07-25 09:42:00,09:42:02,09:42:43,21290,21386,16680.0,43,16685.0,7,16680.0,16685.0,16675.0,16675.0,111,-103,16670,24,16675,29
2016-07-25 09:43:00,09:43:03,09:43:39,21409,21577,16670.0,31,16675.0,37,16670.0,16685.0,16670.0,16685.0,202,-62,16680,48,16685,13
2016-07-25 09:44:00,09:44:13,09:44:37,21608,21648,16680.0,41,16685.0,43,16685.0,16685.0,16685.0,16685.0,37,29,16685,17,16690,40
2016-07-25 09:45:00,09:45:07,09:45:53,21668,21806,16685.0,17,16690.0,57,16685.0,16685.0,16675.0,16675.0,84,-28,16675,32,16680,24
2016-07-25 09:46:00,09:46:22,09:46:55,21832,21889,16675.0,31,16680.0,44,16680.0,16680.0,16675.0,16675.0,46,-42,16670,41,16675,15
2016-07-25 09:47:00,09:47:00,09:47:59,21899,22123,16670.0,40,16675.0,28,16670.0,16675.0,16655.0,16665.0,192,2,16660,43,16665,22
2016-07-25 09:48:00,09:48:00,09:48:50,22126,22330,16660.0,43,16665.0,22,16660.0,16660.0,16650.0,16655.0,180,-16,16655,36,16660,56
2016-07-25 09:49:00,09:49:23,09:49:52,22372,22405,16655.0,32,16660.0,102,16655.0,16660.0,16655.0,16655.0,40,-38,16650,109,16655,12
2016-07-25 09:50:00,09:50:18,09:50:38,22422,22533,16650.0,103,16655.0,53,16650.0,16670.0,16650.0,16665.0,163,129,16660,71,16665,5
2016-07-25 09:51:00,09:51:00,09:51:58,22551,22773,16660.0,71,16665.0,51,16665.0,16665.0,16660.0,16665.0,235,85,16665,3,16670,73
2016-07-25 09:52:00,09:52:00,09:52:56,22776,22875,16665.0,4,16670.0,71,16665.0,16665.0,16665.0,16665.0,62,21,16660,38,16670,72
2016-07-25 09:53:00,09:53:12,09:53:33,22883,22930,16665.0,17,16670.0,72,16665.0,16665.0,16665.0,16665.0,47,13,16660,37,16665,5
2016-07-25 09:54:00,09:54:05,09:54:46,22968,23021,16660.0,29,16665.0,20,16665.0,16665.0,16665.0,16665.0,47,47,16660,43,16670,64
2016-07-25 09:55:00,09:55:01,09:55:50,23037,23242,16660.0,29,16665.0,35,16660.0,16660.0,16640.0,16650.0,231,-64,16645,35,16650,28
2016-07-25 09:56:00,09:56:01,09:56:28,23259,23323,16645.0,24,16650.0,40,16645.0,16645.0,16640.0,16645.0,36,-32,16640,23,16645,35
2016-07-25 09:57:00,09:57:14,09:57:59,23370,23610,16640.0,31,16645.0,46,16640.0,16650.0,16640.0,16650.0,290,64,16645,41,16655,53
2016-07-25 09:58:00,09:58:00,09:58:59,23611,23781,16645.0,32,16650.0,13,16650.0,16650.0,16645.0,16650.0,136,36,16645,39,16650,3
2016-07-25 09:59:00,09:59:00,09:59:57,23786,23896,16650.0,1,16655.0,49,16650.0,16655.0,16650.0,16655.0,79,37,16655,2,16660,67
2016-07-25 10:00:00,10:00:03,10:00:58,23913,24023,16655.0,19,16660.0,52,16655.0,16655.0,16650.0,16650.0,66,-33,16650,41,16655,7
2016-07-25 10:01:00,10:01:04,10:01:31,24036,24075,16650.0,34,16655.0,15,16655.0,16655.0,16655.0,16655.0,28,-20,16650,32,16655,36
2016-07-25 10:02:00,10:02:09,10:02:54,24105,24212,16650.0,28,16655.0,39,16650.0,16650.0,16645.0,16645.0,123,13,16640,51,16645,10
2016-07-25 10:03:00,10:03:25,10:03:54,24237,24299,16640.0,30,16645.0,35,16645.0,16650.0,16645.0,16650.0,57,45,16645,36,16650,35
2016-07-25 10:04:00,10:04:35,10:04:35,24333,24340,16645.0,17,16650.0,45,16650.0,16650.0,16650.0,16650.0,15,15,16645,27,16650,23
2016-07-25 10:05:00,10:05:27,10:05:59,24369,24503,16645.0,13,16650.0,35,16645.0,16645.0,16640.0,16645.0,124,-8,16640,37,16645,9
2016-07-25 10:06:00,10:06:01,10:06:40,24509,24591,16645.0,1,16650.0,81,16645.0,16645.0,16645.0,16645.0,59,16,16640,38,16645,3
2016-07-25 10:07:00,10:07:06,10:07:56,24606,24725,16640.0,39,16645.0,13,16645.0,16650.0,16645.0,16650.0,127,61,16650,9,16655,65
2016-07-25 10:08:00,10:08:00,10:08:42,24731,24859,16650.0,24,16655.0,62,16650.0,16650.0,16645.0,16645.0,119,-15,16640,33,16645,15
2016-07-25 10:09:00,10:09:00,10:09:52,24891,25154,16640.0,10,16645.0,29,16640.0,16640.0,16620.0,16630.0,284,-123,16625,27,16630,14
2016-07-25 10:10:00,10:10:00,10:10:54,25159,25357,16625.0,28,16630.0,11,16630.0,16635.0,16625.0,16635.0,213,15,16635,6,16640,65
2016-07-25 10:11:00,10:11:34,10:11:58,25373,25404,16635.0,18,16640.0,62,16635.0,16640.0,16635.0,16640.0,22,-4,16635,11,16640,60
2016-07-25 10:12:00,10:12:01,10:12:48,25406,25499,16635.0,19,16640.0,60,16635.0,16635.0,16635.0,16635.0,83,-39,16635,8,16640,70
2016-07-25 10:13:00,10:13:03,10:13:51,25512,25771,16635.0,15,16640.0,71,16635.0,16645.0,16635.0,16645.0,357,205,16640,148,16645,10
2016-07-25 10:14:00,10:14:01,10:14:54,25776,25896,16640.0,148,16645.0,6,16645.0,16645.0,16645.0,16645.0,79,-12,16640,161,16645,4
2016-07-25 10:15:00,10:15:15,10:15:48,25919,25999,16640.0,150,16645.0,30,16640.0,16645.0,16640.0,16640.0,36,7,16640,148,16645,29
2016-07-25 10:16:00,10:16:10,10:16:43,26012,26067,16640.0,150,16645.0,30,16640.0,16645.0,16635.0,16635.0,174,-118,16630,36,16640,57
2016-07-25 10:17:00,10:17:12,10:17:47,26107,26206,16630.0,39,16635.0,10,16635.0,16645.0,16635.0,16640.0,72,0,16635,38,16640,24
2016-07-25 10:18:00,10:18:03,10:18:56,26219,26312,16635.0,41,16640.0,9,16640.0,16650.0,16640.0,16645.0,63,28,16640,34,16645,5
2016-07-25 10:19:00,10:19:03,10:19:55,26323,26401,16640.0,38,16645.0,7,16640.0,16645.0,16640.0,16645.0,25,1,16640,33,16645,2
2016-07-25 10:20:00,10:20:11,10:20:58,26415,26475,16640.0,31,16645.0,11,16645.0,16645.0,16645.0,16645.0,26,8,16640,40,16650,43
2016-07-25 10:21:00,10:21:00,10:21:16,26478,26503,16640.0,40,16650.0,43,16645.0,16645.0,16645.0,16645.0,10,-6,16645,4,16650,41
2016-07-25 10:22:00,10:22:14,10:22:59,26544,26663,16645.0,36,16650.0,29,16650.0,16655.0,16645.0,16655.0,93,35,16655,4,16660,36
2016-07-25 10:23:00,10:23:03,10:23:58,26668,26767,16655.0,2,16660.0,36,16655.0,16660.0,16655.0,16660.0,36,7,16655,30,16660,29
2016-07-25 10:24:00,10:24:17,10:24:54,26791,26836,16655.0,30,16660.0,38,16660.0,16660.0,16650.0,16650.0,28,-18,16650,36,16655,18
2016-07-25 10:25:00,10:25:34,10:25:59,26851,26914,16650.0,38,16655.0,21,16650.0,16655.0,16650.0,16655.0,62,-34,16655,1,16660,48
2016-07-25 10:26:00,10:26:17,10:26:37,26925,26977,16655.0,17,16660.0,47,16660.0,16660.0,16650.0,16655.0,46,-24,16655,2,16660,46
2016-07-25 10:27:00,10:27:09,10:27:49,27012,27131,16655.0,28,16660.0,37,16660.0,16660.0,16660.0,16660.0,119,109,16660,20,16665,25
2016-07-25 10:28:00,10:28:03,10:28:59,27150,27243,16660.0,23,16665.0,28,16665.0,16665.0,16660.0,16660.0,36,2,16660,46,16665,17
2016-07-25 10:29:00,10:29:22,10:29:59,27269,27376,16660.0,47,16665.0,18,16665.0,16670.0,16660.0,16665.0,78,44,16660,32,16670,31
2016-07-25 10:30:00,10:30:00,10:30:57,27378,27460,16660.0,41,16670.0,31,16665.0,16665.0,16660.0,16660.0,23,-7,16660,35,16665,12
2016-07-25 10:31:00,10:31:27,10:31:58,27474,27500,16660.0,36,16665.0,8,16660.0,16660.0,16660.0,16660.0,10,-10,16660,35,16665,11
2016-07-25 10:32:00,10:32:06,10:32:58,27509,27558,16660.0,37,16665.0,8,16665.0,16665.0,16655.0,16655.0,45,-41,16655,10,16660,26
2016-07-25 10:33:00,10:33:09,10:33:43,27571,27614,16655.0,5,16660.0,31,16655.0,16660.0,16650.0,16660.0,15,-1,16655,13,16660,28
2016-07-25 10:34:00,10:34:03,10:34:59,27620,27658,16655.0,13,16660.0,29,16655.0,16655.0,16655.0,16655.0,21,-21,16650,34,16655,2
2016-07-25 10:35:00,10:35:00,10:35:51,27662,27694,16650.0,34,16655.0,1,16655.0,16655.0,16650.0,16650.0,7,-5,16650,36,16655,18
2016-07-25 10:36:00,10:36:20,10:36:41,27699,27778,16650.0,37,16655.0,16,16650.0,16650.0,16650.0,16650.0,93,-93,16650,14,16655,22
2016-07-25 10:37:00,10:37:02,10:37:58,27786,27834,16650.0,15,16655.0,20,16655.0,16660.0,16655.0,16660.0,30,16,16655,12,16660,25
2016-07-25 10:38:00,10:38:09,10:38:30,27837,27864,16655.0,12,16660.0,25,16655.0,16655.0,16655.0,16655.0,22,4,16655,8,16660,25
2016-07-25 10:39:00,10:39:38,10:39:38,27888,27888,16655.0,22,16660.0,15,16660.0,16660.0,16660.0,16660.0,1,1,16655,21,16660,13
2016-07-25 10:40:00,10:40:17,10:40:59,27898,27915,16655.0,16,16660.0,16,16660.0,16660.0,16655.0,16655.0,8,-4,16655,6,16660,23
2016-07-25 10:41:00,10:41:00,10:41:17,27918,27944,16655.0,6,16660.0,23,16655.0,16655.0,16655.0,16655.0,16,-4,16655,4,16660,25
2016-07-25 10:42:00,10:42:08,10:42:29,27961,28054,16655.0,22,16660.0,17,16660.0,16670.0,16660.0,16665.0,72,-2,16665,10,16670,34
2016-07-25 10:43:00,10:43:26,10:43:46,28089,28123,16665.0,21,16670.0,32,16665.0,16665.0,16665.0,16665.0,21,-21,16665,7,16670,26
2016-07-25 10:44:00,10:44:54,10:44:54,28149,28149,16665.0,14,16670.0,23,16670.0,16670.0,16670.0,16670.0,1,1,16665,18,16670,22
2016-07-25 10:45:00,10:45:02,10:45:44,28152,28227,16665.0,18,16670.0,22,16670.0,16680.0,16670.0,16680.0,66,44,16675,17,16680,26
2016-07-25 10:46:00,10:46:06,10:46:54,28246,28277,16675.0,10,16680.0,32,16680.0,16680.0,16675.0,16675.0,17,-11,16670,34,16675,23
2016-07-25 10:47:00,10:47:04,10:47:56,28286,28348,16670.0,30,16675.0,28,16670.0,16675.0,16670.0,16675.0,36,4,16670,31,16675,8
2016-07-25 10:48:00,10:48:05,10:48:54,28356,28402,16670.0,36,16675.0,3,16675.0,16675.0,16670.0,16670.0,34,-28,16665,10,16670,22
2016-07-25 10:49:00,10:49:02,10:49:02,28415,28419,16665.0,9,16670.0,27,16670.0,16670.0,16670.0,16670.0,7,7,16665,32,16670,6
2016-07-25 10:50:00,10:50:08,10:50:51,28467,28566,16665.0,32,16670.0,15,16670.0,16675.0,16670.0,16670.0,93,-10,16670,14,16675,43
2016-07-25 10:51:00,10:51:05,10:51:19,28572,28594,16670.0,15,16675.0,38,16670.0,16670.0,16670.0,16670.0,25,-25,16670,5,16675,40
2016-07-25 10:52:00,10:52:00,10:52:00,0,0,0.0,0,0.0,0,16670.0,16670.0,16670.0,16670.0,0,0,0,0,0,0
2016-07-25 10:53:00,10:53:04,10:53:35,28629,28641,16670.0,33,16675.0,35,16675.0,16675.0,16675.0,16675.0,2,2,16670,32,16675,33
2016-07-25 10:54:00,10:54:12,10:54:49,28649,28659,16670.0,35,16675.0,31,16675.0,16675.0,16675.0,16675.0,2,2,16670,34,16675,30
2016-07-25 10:55:00,10:55:05,10:55:56,28663,28704,16670.0,34,16675.0,29,16675.0,16680.0,16675.0,16680.0,33,33,16675,21,16680,28
2016-07-25 10:56:00,10:56:14,10:56:44,28714,28749,16675.0,25,16680.0,25,16680.0,16680.0,16675.0,16675.0,28,-10,16670,26,16675,18
2016-07-25 10:57:00,10:57:00,10:57:41,28756,28798,16670.0,28,16675.0,11,16675.0,16675.0,16675.0,16675.0,20,4,16670,29,16675,1
2016-07-25 10:58:00,10:58:53,10:58:57,28816,28820,16670.0,31,16675.0,7,16675.0,16675.0,16675.0,16675.0,3,3,16675,4,16680,30
2016-07-25 10:59:00,10:59:00,10:59:34,28826,28845,16675.0,5,16680.0,31,16675.0,16675.0,16675.0,16675.0,11,-3,16675,12,16680,25
2016-07-25 11:00:00,11:00:42,11:00:42,28877,28881,16675.0,8,16680.0,23,16675.0,16675.0,16675.0,16675.0,6,-6,16670,25,16675,8
2016-07-25 11:01:00,11:01:05,11:01:54,28891,28930,16670.0,27,16675.0,3,16675.0,16675.0,16675.0,16675.0,15,-11,16670,25,16675,9
2016-07-25 11:02:00,11:02:31,11:02:31,28946,28995,16670.0,27,16675.0,15,16670.0,16670.0,16670.0,16670.0,70,-70,16665,30,16675,25
2016-07-25 11:03:00,11:03:59,11:03:59,29031,29034,16665.0,27,16670.0,24,16670.0,16670.0,16670.0,16670.0,5,5,16665,28,16670,17
2016-07-25 11:04:00,11:04:03,11:04:42,29037,29071,16665.0,28,16670.0,17,16670.0,16670.0,16665.0,16665.0,23,-19,16665,13,16670,23
2016-07-25 11:05:00,11:05:19,11:05:47,29089,29118,16665.0,11,16670.0,29,16665.0,16665.0,16665.0,16665.0,14,-12,16660,25,16665,3
2016-07-25 11:06:00,11:06:12,11:06:51,29126,29153,16660.0,25,16665.0,5,16665.0,16665.0,16665.0,16665.0,21,-15,16660,23,16665,11
2016-07-25 11:07:00,11:07:04,11:07:30,29162,29236,16660.0,23,16665.0,5,16665.0,16665.0,16660.0,16660.0,83,9,16660,9,16665,23
2016-07-25 11:08:00,11:08:18,11:08:18,29258,29258,16660.0,23,16665.0,16,16660.0,16660.0,16660.0,16660.0,1,-1,16660,22,16665,17
2016-07-25 11:09:00,11:09:13,11:09:48,29273,29290,16660.0,27,16665.0,10,16665.0,16665.0,16665.0,16665.0,6,6,16660,29,16665,10
2016-07-25 11:10:00,11:10:01,11:10:58,29294,29328,16660.0,29,16665.0,11,16660.0,16665.0,16660.0,16665.0,6,0,16660,33,16665,4
2016-07-25 11:11:00,11:11:02,11:11:37,29331,29374,16660.0,33,16665.0,4,16665.0,16665.0,16665.0,16665.0,33,-19,16660,32,16665,8
2016-07-25 11:12:00,11:12:08,11:12:50,29383,29412,16660.0,33,16665.0,5,16665.0,16665.0,16665.0,16665.0,15,-7,16660,26,16670,36
2016-07-25 11:13:00,11:13:04,11:13:41,29420,29523,16660.0,26,16665.0,7,16665.0,16670.0,16665.0,16670.0,131,129,16665,25,16675,31
2016-07-25 11:14:00,11:14:31,11:14:31,29546,29546,16665.0,20,16670.0,21,16670.0,16670.0,16670.0,16670.0,1,1,16665,18,16670,23
2016-07-25 11:15:00,11:15:09,11:15:38,29557,29574,16665.0,12,16670.0,23,16670.0,16670.0,16670.0,16670.0,4,4,16665,12,16670,20
2016-07-25 11:16:00,11:16:12,11:16:48,29592,29602,16665.0,22,16670.0,15,16670.0,16670.0,16665.0,16665.0,3,1,16665,14,16670,25
2016-07-25 11:17:00,11:17:10,11:17:11,29614,29628,16665.0,16,16670.0,21,16665.0,16665.0,16665.0,16665.0,21,-21,16665,10,16670,26
2016-07-25 11:18:00,11:18:36,11:18:48,29655,29675,16665.0,15,16670.0,23,16670.0,16670.0,16670.0,16670.0,20,20,16665,30,16675,35
2016-07-25 11:19:00,11:19:08,11:19:26,29691,29711,16665.0,20,16670.0,24,16670.0,16670.0,16665.0,16665.0,18,-16,16665,1,16670,28
2016-07-25 11:20:00,11:20:11,11:20:11,29722,29726,16665.0,6,16670.0,28,16665.0,16665.0,16665.0,16665.0,5,-5,16660,33,16665,2
2016-07-25 11:21:00,11:21:17,11:21:57,29759,29839,16660.0,30,16665.0,7,16665.0,16670.0,16665.0,16665.0,60,28,16665,2,16670,26
2016-07-25 11:22:00,11:22:06,11:22:48,29846,29904,16665.0,7,16670.0,24,16665.0,16670.0,16665.0,16670.0,45,5,16665,25,16670,1
2016-07-25 11:23:00,11:23:19,11:23:37,29920,29945,16665.0,12,16670.0,24,16665.0,16665.0,16665.0,16665.0,22,-12,16665,13,16670,25
2016-07-25 11:24:00,11:24:11,11:24:47,29951,29972,16665.0,8,16670.0,24,16665.0,16665.0,16665.0,16665.0,9,-1,16665,9,16670,24
2016-07-25 11:25:00,11:25:11,11:25:51,29984,30034,16665.0,18,16670.0,20,16670.0,16670.0,16670.0,16670.0,51,-9,16665,45,16670,3
2016-07-25 11:26:00,11:26:40,11:26:58,30052,30088,16665.0,35,16670.0,4,16665.0,16665.0,16665.0,16665.0,35,-19,16665,2,16670,34
2016-07-25 11:27:00,11:27:11,11:27:51,30092,30125,16665.0,3,16670.0,34,16665.0,16665.0,16665.0,16665.0,14,-6,16665,3,16670,28
2016-07-25 11:28:00,11:28:08,11:28:32,30144,30169,16665.0,7,16670.0,28,16665.0,16665.0,16665.0,16665.0,31,-19,16660,26,16665,4
2016-07-25 11:29:00,11:29:00,11:29:50,30179,30193,16665.0,4,16670.0,30,16665.0,16665.0,16665.0,16665.0,5,-5,16660,26,16665,8
2016-07-25 11:30:00,11:30:00,11:30:56,30203,30498,16660.0,20,16665.0,19,16660.0,16660.0,16635.0,16635.0,310,-208,16630,24,16640,39
2016-07-25 11:31:00,11:31:00,11:31:57,30507,30692,16630.0,24,16635.0,6,16635.0,16640.0,16635.0,16640.0,106,42,16640,11,16645,32
2016-07-25 11:32:00,11:32:13,11:32:50,30713,30792,16640.0,11,16645.0,33,16640.0,16640.0,16635.0,16635.0,80,-40,16630,27,16635,7
2016-07-25 11:33:00,11:33:00,11:33:59,30810,30911,16635.0,3,16640.0,36,16635.0,16635.0,16635.0,16635.0,54,11,16630,29,16635,1
2016-07-25 11:34:00,11:34:00,11:34:35,30914,30961,16630.0,29,16635.0,1,16635.0,16635.0,16635.0,16635.0,7,3,16635,6,16640,37
2016-07-25 11:35:00,11:35:22,11:35:57,30987,31057,16635.0,22,16640.0,33,16640.0,16645.0,16640.0,16645.0,51,47,16640,42,16645,14
2016-07-25 11:36:00,11:36:34,11:36:44,31086,31105,16640.0,22,16645.0,35,16645.0,16645.0,16640.0,16640.0,12,-10,16640,15,16645,40
2016-07-25 11:37:00,11:37:05,11:37:56,31125,31183,16640.0,20,16645.0,33,16645.0,16645.0,16635.0,16635.0,44,-40,16630,35,16635,25
2016-07-25 11:38:00,11:38:13,11:38:41,31188,31299,16630.0,35,16635.0,25,16630.0,16630.0,16625.0,16625.0,105,-37,16620,39,16625,3
2016-07-25 11:39:00,11:39:00,11:39:57,31321,31461,16625.0,20,16630.0,30,16625.0,16635.0,16625.0,16630.0,121,11,16625,37,16630,2
2016-07-25 11:40:00,11:40:07,11:40:56,31480,31587,16630.0,31,16635.0,16,16630.0,16635.0,16620.0,16620.0,80,-25,16620,33,16625,15
2016-07-25 11:41:00,11:41:01,11:41:43,31597,31689,16620.0,36,16625.0,16,16625.0,16625.0,16620.0,16625.0,61,-10,16620,30,16625,9
2016-07-25 11:42:00,11:42:40,11:42:40,31746,31750,16620.0,35,16625.0,13,16625.0,16625.0,16625.0,16625.0,9,9,16625,24,16630,36
2016-07-25 11:43:00,11:43:14,11:43:45,31785,31872,16625.0,24,16630.0,35,16625.0,16625.0,16625.0,16625.0,79,-67,16620,42,16625,6
2016-07-25 11:44:00,11:44:21,11:44:51,31931,32116,16620.0,43,16625.0,4,16625.0,16625.0,16610.0,16615.0,250,-189,16615,12,16620,30
2016-07-25 11:45:00,11:45:01,11:45:58,32133,32263,16615.0,9,16620.0,34,16615.0,16615.0,16610.0,16610.0,136,-68,16610,3,16615,32
2016-07-25 11:46:00,11:46:00,11:46:21,32267,32316,16610.0,9,16615.0,32,16610.0,16610.0,16605.0,16605.0,24,-2,16605,25,16610,37
2016-07-25 11:47:00,11:47:32,11:47:51,32370,32470,16605.0,37,16610.0,46,16610.0,16615.0,16610.0,16615.0,99,53,16610,54,16620,62
2016-07-25 11:48:00,11:48:09,11:48:40,32495,32563,16615.0,35,16620.0,57,16620.0,16620.0,16615.0,16615.0,67,-45,16610,40,16615,34
2016-07-25 11:49:00,11:49:06,11:49:50,32584,32638,16610.0,65,16615.0,23,16615.0,16615.0,16615.0,16615.0,42,-8,16615,28,16620,56
2016-07-25 11:50:00,11:50:08,11:50:48,32658,32833,16615.0,43,16620.0,44,16620.0,16630.0,16615.0,16630.0,199,189,16630,5,16635,35
2016-07-25 11:51:00,11:51:00,11:51:50,32854,32938,16630.0,27,16635.0,85,16630.0,16630.0,16625.0,16625.0,65,-19,16625,19,16630,31
2016-07-25 11:52:00,11:52:34,11:52:52,32986,33023,16625.0,50,16630.0,11,16630.0,16630.0,16625.0,16625.0,43,-33,16620,27,16625,24
2016-07-25 11:53:00,11:53:37,11:53:42,33062,33149,16620.0,35,16625.0,15,16625.0,16635.0,16625.0,16635.0,136,136,16630,36,16635,6
2016-07-25 11:54:00,11:54:12,11:54:51,33193,33290,16630.0,15,16635.0,56,16630.0,16630.0,16630.0,16630.0,90,18,16630,23,16635,23
2016-07-25 11:55:00,11:55:08,11:55:57,33308,33384,16630.0,24,16635.0,32,16635.0,16635.0,16630.0,16630.0,57,33,16625,58,16635,40
2016-07-25 11:56:00,11:56:00,11:56:58,33390,33444,16625.0,62,16630.0,3,16630.0,16630.0,16625.0,16625.0,39,-27,16620,31,16625,23
2016-07-25 11:57:00,11:57:10,11:57:53,33455,33494,16620.0,36,16625.0,30,16625.0,16630.0,16625.0,16630.0,30,30,16625,32,16630,20
2016-07-25 11:58:00,11:58:32,11:58:32,33519,33528,16625.0,22,16630.0,23,16630.0,16630.0,16630.0,16630.0,11,11,16625,24,16630,15
2016-07-25 11:59:00,11:59:16,11:59:30,33560,33576,16625.0,29,16630.0,17,16630.0,16630.0,16630.0,16630.0,3,3,16625,24,16630,17
2016-07-25 12:00:00,12:00:01,12:00:02,33590,33601,16625.0,12,16630.0,28,16625.0,16625.0,16625.0,16625.0,14,-14,16620,35,16625,10
2016-07-25 12:01:00,12:01:08,12:01:59,33640,33711,16620.0,38,16625.0,21,16620.0,16630.0,16620.0,16625.0,56,-20,16620,47,16630,26
2016-07-25 12:02:00,12:02:00,12:02:42,33714,33811,16620.0,47,16630.0,26,16625.0,16630.0,16625.0,16630.0,65,59,16625,40,16635,30
2016-07-25 12:03:00,12:03:42,12:03:42,33864,33864,16630.0,37,16635.0,27,16635.0,16635.0,16635.0,16635.0,1,1,16630,36,16635,26
2016-07-25 12:04:00,12:04:20,12:04:56,33895,33962,16630.0,36,16635.0,31,16635.0,16635.0,16635.0,16635.0,44,44,16630,32,16635,10
2016-07-25 12:05:00,12:05:05,12:05:59,33978,34053,16630.0,39,16635.0,1,16635.0,16635.0,16635.0,16635.0,52,-33,16635,7,16640,50
2016-07-25 12:06:00,12:06:02,12:06:03,34057,34078,16635.0,6,16640.0,50,16635.0,16635.0,16630.0,16630.0,25,-25,16630,7,16635,49
2016-07-25 12:07:00,12:07:27,12:07:51,34107,34128,16630.0,27,16635.0,57,16630.0,16630.0,16630.0,16630.0,4,-4,16630,25,16635,51
2016-07-25 12:08:00,12:08:10,12:08:51,34135,34216,16630.0,26,16635.0,52,16630.0,16630.0,16625.0,16625.0,85,-26,16625,69,16630,25
2016-07-25 12:09:00,12:09:10,12:09:36,34222,34261,16625.0,68,16630.0,25,16625.0,16625.0,16620.0,16620.0,64,-64,16620,27,16625,21
2016-07-25 12:10:00,12:10:01,12:10:19,34272,34297,16620.0,31,16625.0,25,16620.0,16625.0,16620.0,16625.0,28,18,16625,43,16630,18
2016-07-25 12:11:00,12:11:00,12:11:00,0,0,0.0,0,0.0,0,16625.0,16625.0,16625.0,16625.0,0,0,0,0,0,0
2016-07-25 12:12:00,12:12:00,12:12:00,0,0,0.0,0,0.0,0,16625.0,16625.0,16625.0,16625.0,0,0,0,0,0,0
2016-07-25 12:13:00,12:13:11,12:13:31,34354,34408,16625.0,42,16630.0,40,16625.0,16625.0,16625.0,16625.0,50,-18,16620,36,16625,22
2016-07-25 12:14:00,12:14:11,12:14:49,34419,34549,16620.0,33,16625.0,31,16625.0,16625.0,16625.0,16625.0,152,120,16620,33,16625,9
2016-07-25 12:15:00,12:15:05,12:15:47,34569,34615,16620.0,33,16625.0,6,16625.0,16625.0,16625.0,16625.0,20,20,16620,25,16625,30
2016-07-25 12:16:00,12:16:16,12:16:54,34631,34687,16620.0,28,16625.0,35,16625.0,16630.0,16625.0,16625.0,45,34,16620,40,16630,39
2016-07-25 12:17:00,12:17:18,12:17:59,34703,34758,16620.0,30,16625.0,2,16625.0,16625.0,16625.0,16625.0,17,-6,16620,33,16625,1
2016-07-25 12:18:00,12:18:10,12:18:40,34765,34830,16620.0,28,16625.0,7,16625.0,16625.0,16615.0,16615.0,56,-30,16615,11,16620,34
2016-07-25 12:19:00,12:19:10,12:19:21,34841,34850,16615.0,14,16620.0,40,16615.0,16620.0,16615.0,16620.0,3,-1,16615,33,16620,38
2016-07-25 12:20:00,12:20:04,12:20:41,34867,34900,16615.0,31,16620.0,33,16615.0,16620.0,16615.0,16615.0,21,15,16615,29,16620,14
2016-07-25 12:21:00,12:21:21,12:21:55,34924,34947,16615.0,33,16620.0,18,16620.0,16620.0,16620.0,16620.0,10,10,16615,32,16620,12
2016-07-25 12:22:00,12:22:21,12:22:21,34958,34961,16615.0,32,16620.0,15,16620.0,16620.0,16620.0,16620.0,7,7,16615,33,16620,5
2016-07-25 12:23:00,12:23:18,12:23:57,34992,35039,16615.0,30,16620.0,14,16615.0,16625.0,16615.0,16625.0,28,24,16620,47,16625,2
2016-07-25 12:24:00,12:24:10,12:24:57,35046,35090,16620.0,50,16625.0,3,16625.0,16630.0,16625.0,16630.0,24,20,16625,22,16630,14
2016-07-25 12:25:00,12:25:23,12:25:23,35111,35112,16625.0,23,16630.0,13,16630.0,16630.0,16630.0,16630.0,6,6,16625,29,16630,12
2016-07-25 12:26:00,12:26:24,12:26:41,35126,35182,16625.0,28,16630.0,16,16630.0,16635.0,16630.0,16630.0,46,-7,16630,27,16635,33
2016-07-25 12:27:00,12:27:24,12:27:37,35212,35232,16630.0,33,16635.0,28,16635.0,16635.0,16630.0,16630.0,26,2,16625,32,16630,13
2016-07-25 12:28:00,12:28:06,12:28:59,35254,35287,16625.0,13,16630.0,32,16625.0,16625.0,16620.0,16620.0,28,-26,16620,34,16625,5
2016-07-25 12:29:00,12:29:05,12:29:54,35293,35323,16620.0,38,16625.0,5,16625.0,16630.0,16625.0,16630.0,22,22,16630,15,16635,35
2016-07-25 12:30:00,12:30:01,12:30:55,35338,35404,16630.0,40,16635.0,16,16630.0,16630.0,16625.0,16625.0,24,-24,16625,25,16630,7
2016-07-25 12:31:00,12:31:02,12:31:48,35408,35487,16625.0,29,16630.0,7,16630.0,16640.0,16630.0,16640.0,89,7,16635,31,16640,13
2016-07-25 12:32:00,12:32:06,12:32:46,35497,35566,16635.0,28,16640.0,22,16635.0,16635.0,16635.0,16635.0,51,-34,16630,96,16640,37
2016-07-25 12:33:00,12:33:00,12:33:44,35573,35623,16630.0,97,16635.0,7,16635.0,16635.0,16635.0,16635.0,33,-3,16635,4,16640,31
2016-07-25 12:34:00,12:34:02,12:34:51,35641,35783,16635.0,33,16640.0,35,16635.0,16640.0,16635.0,16640.0,200,66,16635,36,16640,6
2016-07-25 12:35:00,12:35:06,12:35:33,35788,35826,16635.0,36,16640.0,9,16635.0,16635.0,16635.0,16635.0,44,-26,16630,63,16640,37
2016-07-25 12:36:00,12:36:45,12:36:45,35848,35876,16630.0,63,16635.0,14,16630.0,16630.0,16630.0,16630.0,60,-60,16625,10,16630,32
2016-07-25 12:37:00,12:37:08,12:37:29,35899,35910,16625.0,12,16630.0,40,16625.0,16625.0,16625.0,16625.0,5,-5,16625,29,16630,39
2016-07-25 12:38:00,12:38:41,12:38:46,35939,35958,16625.0,45,16630.0,4,16630.0,16630.0,16630.0,16630.0,18,16,16625,47,16630,4
2016-07-25 12:39:00,12:39:15,12:39:56,35972,35997,16625.0,37,16630.0,10,16630.0,16630.0,16630.0,16630.0,14,14,16630,24,16635,8
2016-07-25 12:40:00,12:40:15,12:40:16,36011,36021,16630.0,35,16635.0,6,16635.0,16635.0,16635.0,16635.0,13,10,16630,29,16635,7
2016-07-25 12:41:00,12:41:09,12:41:16,36049,36078,16630.0,23,16635.0,31,16630.0,16630.0,16630.0,16630.0,35,-13,16625,33,16630,13
2016-07-25 12:42:00,12:42:00,12:42:44,36095,36174,16625.0,33,16630.0,4,16630.0,16635.0,16630.0,16630.0,68,-18,16630,3,16635,31
2016-07-25 12:43:00,12:43:09,12:43:21,36187,36210,16630.0,30,16635.0,5,16635.0,16635.0,16635.0,16635.0,13,13,16630,31,16640,37
2016-07-25 12:44:00,12:44:18,12:44:18,36235,36240,16630.0,32,16635.0,14,16635.0,16635.0,16635.0,16635.0,7,7,16630,33,16635,4
2016-07-25 12:45:00,12:45:02,12:45:50,36263,36402,16630.0,30,16635.0,16,16630.0,16630.0,16630.0,16630.0,150,-105,16630,6,16635,60
2016-07-25 12:46:00,12:46:44,12:46:44,36435,36455,16630.0,26,16635.0,53,16630.0,16630.0,16630.0,16630.0,31,-31,16625,43,16635,63
2016-07-25 12:47:00,12:47:30,12:47:57,36478,36554,16630.0,25,16635.0,52,16635.0,16635.0,16630.0,16635.0,75,41,16630,25,16635,28
2016-07-25 12:48:00,12:48:09,12:48:48,36560,36597,16630.0,21,16635.0,30,16630.0,16635.0,16630.0,16635.0,20,10,16630,28,16635,13
2016-07-25 12:49:00,12:49:05,12:49:57,36613,36679,16630.0,31,16635.0,14,16635.0,16645.0,16635.0,16645.0,52,48,16640,26,16645,8
2016-07-25 12:50:00,12:50:19,12:50:50,36706,36759,16640.0,21,16645.0,26,16645.0,16645.0,16640.0,16645.0,33,31,16640,29,16645,1
2016-07-25 12:51:00,12:51:00,12:51:50,36767,36805,16640.0,30,16645.0,5,16645.0,16645.0,16640.0,16645.0,18,14,16640,23,16645,13
2016-07-25 12:52:00,12:52:05,12:52:41,36814,36876,16640.0,20,16645.0,24,16640.0,16640.0,16635.0,16635.0,32,-32,16635,6,16640,59
2016-07-25 12:53:00,12:53:41,12:53:50,36897,36939,16635.0,31,16640.0,55,16635.0,16635.0,16635.0,16635.0,46,-20,16630,32,16640,59
2016-07-25 12:54:00,12:54:00,12:54:56,36954,37046,16630.0,30,16640.0,62,16635.0,16635.0,16630.0,16635.0,62,45,16630,37,16635,3
2016-07-25 12:55:00,12:55:00,12:55:58,37049,37140,16630.0,41,16640.0,62,16635.0,16635.0,16635.0,16635.0,74,8,16635,3,16640,56
2016-07-25 12:56:00,12:56:03,12:56:51,37145,37204,16635.0,7,16640.0,56,16635.0,16635.0,16635.0,16635.0,53,-50,16630,46,16640,54
2016-07-25 12:57:00,12:57:19,12:57:56,37209,37273,16635.0,6,16640.0,52,16635.0,16635.0,16635.0,16635.0,48,5,16630,46,16640,56
2016-07-25 12:58:00,12:58:16,12:58:55,37284,37360,16635.0,6,16640.0,52,16640.0,16640.0,16640.0,16640.0,77,71,16635,38,16640,2
2016-07-25 12:59:00,12:59:00,12:59:48,37365,37410,16635.0,38,16640.0,4,16640.0,16645.0,16640.0,16645.0,5,5,16640,27,16645,22
2016-07-25 13:00:00,13:00:00,13:00:59,37420,37716,16640.0,28,16645.0,26,16645.0,16665.0,16645.0,16655.0,292,104,16655,35,16660,5
2016-07-25 13:01:00,13:01:00,13:01:44,37717,37858,16655.0,26,16660.0,33,16660.0,16665.0,16655.0,16655.0,199,104,16655,13,16660,38
2016-07-25 13:02:00,13:02:02,13:02:27,37882,37910,16655.0,14,16660.0,44,16655.0,16660.0,16655.0,16660.0,12,-10,16655,18,16660,30
2016-07-25 13:03:00,13:03:14,13:03:48,37949,38011,16655.0,23,16660.0,26,16655.0,16665.0,16655.0,16665.0,42,22,16660,39,16665,21
2016-07-25 13:04:00,13:04:00,13:04:58,38019,38216,16660.0,37,16665.0,21,16665.0,16670.0,16665.0,16665.0,141,83,16665,23,16670,50
2016-07-25 13:05:00,13:05:03,13:05:54,38225,38343,16665.0,22,16670.0,50,16665.0,16665.0,16665.0,16665.0,55,-11,16660,43,16670,57
2016-07-25 13:06:00,13:06:17,13:06:49,38363,38447,16665.0,19,16670.0,47,16665.0,16670.0,16665.0,16670.0,110,102,16665,45,16670,3
2016-07-25 13:07:00,13:07:15,13:07:50,38476,38522,16665.0,31,16670.0,26,16665.0,16665.0,16665.0,16665.0,29,-7,16665,9,16670,40
2016-07-25 13:08:00,13:08:00,13:08:14,38529,38546,16665.0,9,16670.0,41,16665.0,16665.0,16665.0,16665.0,11,-11,16665,4,16670,43
2016-07-25 13:09:00,13:09:33,13:09:38,38570,38583,16665.0,11,16670.0,47,16665.0,16665.0,16665.0,16665.0,14,-8,16660,54,16670,51
2016-07-25 13:10:00,13:10:14,13:10:56,38597,38683,16665.0,12,16670.0,47,16665.0,16665.0,16660.0,16665.0,110,-20,16660,34,16665,5
2016-07-25 13:11:00,13:11:00,13:11:46,38690,38727,16660.0,41,16665.0,7,16665.0,16665.0,16660.0,16660.0,7,-1,16660,41,16665,11
2016-07-25 13:12:00,13:12:13,13:12:49,38745,38838,16660.0,21,16665.0,40,16660.0,16660.0,16655.0,16660.0,112,-86,16655,26,16660,30
2016-07-25 13:13:00,13:13:07,13:13:50,38849,38932,16655.0,27,16660.0,33,16660.0,16660.0,16660.0,16660.0,90,82,16660,2,16665,43
2016-07-25 13:14:00,13:14:05,13:14:48,38949,39087,16660.0,29,16665.0,33,16665.0,16670.0,16660.0,16660.0,142,-57,16660,18,16665,28
2016-07-25 13:15:00,13:15:12,13:15:20,39105,39147,16660.0,18,16665.0,36,16660.0,16660.0,16660.0,16660.0,32,4,16660,14,16665,37
2016-07-25 13:16:00,13:16:07,13:16:48,39186,39228,16660.0,42,16665.0,25,16665.0,16665.0,16665.0,16665.0,37,17,16660,44,16665,6
2016-07-25 13:17:00,13:17:16,13:17:46,39252,39320,16660.0,28,16665.0,43,16660.0,16660.0,16655.0,16660.0,63,9,16655,64,16660,1
2016-07-25 13:18:00,13:18:02,13:18:54,39332,39420,16655.0,60,16660.0,46,16655.0,16660.0,16655.0,16655.0,98,-66,16650,109,16660,49
2016-07-25 13:19:00,13:19:13,13:19:34,39432,39445,16655.0,52,16660.0,43,16655.0,16655.0,16655.0,16655.0,4,-4,16655,47,16660,41
2016-07-25 13:20:00,13:20:05,13:20:07,39458,39481,16655.0,46,16660.0,49,16655.0,16655.0,16655.0,16655.0,56,-32,16650,70,16655,8
2016-07-25 13:21:00,13:21:08,13:21:49,39505,39550,16650.0,86,16655.0,33,16655.0,16655.0,16650.0,16655.0,47,45,16650,82,16655,10
2016-07-25 13:22:00,13:22:09,13:22:55,39559,39640,16650.0,83,16655.0,15,16655.0,16655.0,16645.0,16645.0,110,-72,16640,46,16645,5
2016-07-25 13:23:00,13:23:03,13:23:42,39655,39790,16640.0,42,16645.0,9,16640.0,16640.0,16640.0,16640.0,117,-83,16635,37,16645,51
2016-07-25 13:24:00,13:24:03,13:24:58,39810,40097,16635.0,12,16640.0,36,16635.0,16635.0,16610.0,16615.0,285,-77,16615,32,16620,38
2016-07-25 13:25:00,13:25:00,13:25:57,40102,40268,16615.0,29,16620.0,45,16615.0,16620.0,16610.0,16615.0,161,93,16615,53,16620,11
2016-07-25 13:26:00,13:26:21,13:26:50,40286,40323,16615.0,26,16620.0,29,16615.0,16620.0,16615.0,16620.0,13,9,16620,24,16625,54
2016-07-25 13:27:00,13:27:00,13:27:59,40339,40414,16620.0,13,16625.0,64,16620.0,16620.0,16615.0,16620.0,49,9,16615,67,16625,68
2016-07-25 13:28:00,13:28:00,13:28:52,40415,40486,16620.0,21,16625.0,61,16620.0,16620.0,16615.0,16620.0,29,1,16615,54,16620,17
2016-07-25 13:29:00,13:29:06,13:29:48,40497,40561,16615.0,60,16620.0,9,16620.0,16620.0,16615.0,16620.0,70,3,16620,27,16625,56
2016-07-25 13:30:00,13:30:02,13:30:57,40583,40950,16620.0,10,16625.0,65,16620.0,16620.0,16590.0,16600.0,435,-251,16600,7,16605,56
2016-07-25 13:31:00,13:31:00,13:31:59,40952,41196,16600.0,7,16605.0,40,16600.0,16605.0,16595.0,16600.0,301,-85,16600,2,16605,88
2016-07-25 13:32:00,13:32:14,13:32:40,41207,41323,16600.0,10,16605.0,82,16600.0,16600.0,16595.0,16600.0,127,-15,16600,11,16605,91
2016-07-25 13:33:00,13:33:08,13:33:53,41342,41395,16600.0,38,16605.0,79,16600.0,16605.0,16600.0,16605.0,96,68,16605,8,16610,79
2016-07-25 13:34:00,13:34:53,13:34:53,41441,41441,16605.0,33,16610.0,64,16605.0,16605.0,16605.0,16605.0,1,-1,16605,32,16610,65
2016-07-25 13:35:00,13:35:49,13:35:56,41470,41568,16605.0,26,16610.0,58,16610.0,16610.0,16605.0,16610.0,143,131,16610,13,16615,55
2016-07-25 13:36:00,13:36:00,13:36:00,0,0,0.0,0,0.0,0,16610.0,16610.0,16610.0,16610.0,0,0,0,0,0,0
2016-07-25 13:37:00,13:37:15,13:37:54,41623,41712,16610.0,31,16615.0,40,16615.0,16615.0,16615.0,16615.0,113,44,16610,49,16615,8
2016-07-25 13:38:00,13:38:09,13:38:40,41734,41796,16610.0,38,16615.0,14,16615.0,16615.0,16615.0,16615.0,34,10,16610,40,16615,4
2016-07-25 13:39:00,13:39:07,13:39:53,41818,41876,16610.0,40,16615.0,13,16615.0,16615.0,16615.0,16615.0,24,22,16610,44,16615,15
2016-07-25 13:40:00,13:40:01,13:40:58,41884,42003,16610.0,24,16615.0,42,16610.0,16610.0,16605.0,16605.0,79,-68,16600,50,16605,4
2016-07-25 13:41:00,13:41:01,13:41:44,42008,42053,16600.0,55,16605.0,8,16605.0,16605.0,16605.0,16605.0,14,3,16605,27,16610,42
2016-07-25 13:42:00,13:42:06,13:42:21,42063,42073,16605.0,33,16610.0,41,16605.0,16605.0,16605.0,16605.0,6,-6,16605,26,16610,42
2016-07-25 13:43:00,13:43:00,13:43:58,42089,42220,16605.0,42,16610.0,29,16610.0,16615.0,16610.0,16615.0,113,65,16610,50,16615,16
2016-07-25 13:44:00,13:44:12,13:44:51,42236,42276,16610.0,52,16615.0,19,16610.0,16615.0,16610.0,16610.0,19,1,16610,44,16615,26
2016-07-25 13:45:00,13:45:02,13:45:42,42294,42467,16610.0,49,16615.0,23,16615.0,16620.0,16615.0,16620.0,190,132,16620,4,16625,54
2016-07-25 13:46:00,13:46:12,13:46:42,42509,42578,16620.0,11,16625.0,46,16620.0,16625.0,16610.0,16610.0,55,-23,16610,32,16615,48
2016-07-25 13:47:00,13:47:00,13:47:58,42585,42799,16610.0,26,16615.0,54,16610.0,16610.0,16600.0,16610.0,222,41,16610,1,16615,43
2016-07-25 13:48:00,13:48:01,13:48:59,42804,42889,16605.0,54,16610.0,12,16610.0,16615.0,16610.0,16610.0,56,47,16610,48,16615,9
2016-07-25 13:49:00,13:49:06,13:49:57,42892,42958,16610.0,52,16615.0,7,16610.0,16615.0,16610.0,16615.0,33,-11,16615,7,16620,72
2016-07-25 13:50:00,13:50:00,13:50:58,42964,43077,16615.0,2,16620.0,73,16615.0,16615.0,16605.0,16605.0,118,-64,16605,14,16610,38
2016-07-25 13:51:00,13:51:13,13:51:58,43101,43223,16605.0,28,16610.0,35,16605.0,16605.0,16600.0,16605.0,88,-24,16605,12,16610,38
2016-07-25 13:52:00,13:52:27,13:52:59,43254,43297,16605.0,39,16610.0,36,16605.0,16605.0,16600.0,16600.0,29,-27,16600,56,16605,25
2016-07-25 13:53:00,13:53:04,13:53:55,43302,43448,16600.0,59,16605.0,16,16600.0,16600.0,16595.0,16595.0,196,-140,16595,22,16600,53
2016-07-25 13:54:00,13:54:14,13:54:55,43466,43563,16595.0,30,16600.0,50,16595.0,16600.0,16595.0,16600.0,93,-25,16600,40,16605,48
2016-07-25 13:55:00,13:55:00,13:55:47,43567,43681,16600.0,40,16605.0,46,16600.0,16605.0,16595.0,16605.0,94,-76,16600,66,16605,42
2016-07-25 13:56:00,13:56:06,13:56:58,43694,43785,16600.0,77,16605.0,22,16605.0,16610.0,16605.0,16605.0,48,18,16605,31,16610,57
2016-07-25 13:57:00,13:57:02,13:57:54,43788,43889,16605.0,31,16610.0,57,16605.0,16605.0,16600.0,16600.0,103,-103,16595,30,16600,45
2016-07-25 13:58:00,13:58:03,13:58:39,43906,44025,16595.0,46,16600.0,59,16595.0,16600.0,16595.0,16600.0,117,-11,16600,48,16605,35
2016-07-25 13:59:00,13:59:05,13:59:59,44059,44240,16600.0,55,16605.0,56,16600.0,16605.0,16600.0,16605.0,242,8,16600,37,16605,29
2016-07-25 14:00:00,14:00:00,14:00:56,44243,44595,16600.0,37,16605.0,29,16600.0,16610.0,16595.0,16610.0,479,97,16605,77,16610,17
2016-07-25 14:01:00,14:01:01,14:01:56,44610,44789,16605.0,62,16610.0,50,16610.0,16620.0,16610.0,16610.0,256,76,16610,69,16615,46
2016-07-25 14:02:00,14:02:01,14:02:56,44796,44954,16610.0,70,16615.0,50,16615.0,16620.0,16610.0,16615.0,221,-13,16615,23,16620,96
2016-07-25 14:03:00,14:03:01,14:03:58,44958,45066,16615.0,23,16620.0,97,16620.0,16620.0,16610.0,16610.0,115,-26,16610,107,16615,23
2016-07-25 14:04:00,14:04:01,14:04:58,45070,45172,16610.0,108,16615.0,23,16610.0,16620.0,16610.0,16620.0,102,22,16615,91,16620,81
2016-07-25 14:05:00,14:05:00,14:05:49,45175,45327,16615.0,91,16620.0,81,16620.0,16625.0,16620.0,16625.0,245,63,16620,82,16625,28
2016-07-25 14:06:00,14:06:01,14:06:59,45333,45427,16620.0,82,16625.0,42,16625.0,16625.0,16620.0,16625.0,142,-50,16620,35,16625,68
2016-07-25 14:07:00,14:07:07,14:07:58,45435,45555,16620.0,23,16625.0,72,16620.0,16620.0,16605.0,16610.0,154,-104,16605,83,16610,50
2016-07-25 14:08:00,14:08:04,14:08:32,45563,45702,16605.0,87,16610.0,51,16610.0,16620.0,16610.0,16615.0,352,124,16610,56,16615,15
2016-07-25 14:09:00,14:09:00,14:09:40,45715,45889,16610.0,66,16615.0,40,16615.0,16615.0,16605.0,16610.0,250,-126,16610,49,16615,55
