,ST,ET,sidx,eidx,bB,bBS,bA,bAS,O,H,L,C,V,OF,eB,eBS,eA,eAS
2016-12-22 08:00:00,08:00:00,08:00:51,1694,2122,19365.0,40,19370.0,19,19365.0,19370.0,19350.0,19355.0,538,-70,19355,29,19360,45
2016-12-22 08:01:00,08:01:03,08:01:56,2133,2520,19355.0,29,19360.0,45,19355.0,19360.0,19345.0,19345.0,410,124,19345,41,19350,25
2016-12-22 08:02:00,08:02:02,08:02:48,2525,2644,19345.0,42,19350.0,36,19345.0,19350.0,19340.0,19345.0,137,-15,19345,43,19350,30
2016-12-22 08:03:00,08:03:00,08:03:54,2658,2903,19345.0,49,19350.0,27,19345.0,19365.0,19345.0,19360.0,321,113,19355,50,19360,30
2016-12-22 08:04:00,08:04:02,08:04:56,2917,3023,19355.0,33,19360.0,43,19355.0,19355.0,19345.0,19345.0,101,-101,19345,10,19350,44
2016-12-22 08:05:00,08:05:00,08:05:29,3029,3131,19345.0,10,19350.0,44,19345.0,19355.0,19345.0,19350.0,107,73,19350,43,19355,26
2016-12-22 08:06:00,08:06:03,08:06:59,3160,3314,19350.0,41,19355.0,26,19350.0,19360.0,19350.0,19350.0,161,3,19350,51,19355,27
2016-12-22 08:07:00,08:07:09,08:07:59,3326,3418,19350.0,57,19355.0,29,19355.0,19360.0,19350.0,19355.0,60,-6,19350,63,19355,18
2016-12-22 08:08:00,08:08:10,08:08:58,3432,3532,19350.0,60,19355.0,38,19355.0,19355.0,19350.0,19355.0,50,14,19350,61,19355,1
2016-12-22 08:09:00,08:09:01,08:09:58,3538,3759,19350.0,63,19355.0,8,19355.0,19355.0,19335.0,19335.0,202,-104,19330,50,19335,26
2016-12-22 08:10:00,08:10:06,08:10:57,3778,4174,19330.0,41,19335.0,41,19330.0,19330.0,19305.0,19315.0,532,-160,19310,39,19315,37
2016-12-22 08:11:00,08:11:00,08:11:56,4182,4574,19310.0,39,19315.0,37,19315.0,19325.0,19310.0,19320.0,483,137,19320,56,19325,73
2016-12-22 08:12:00,08:12:03,08:12:58,4583,4861,19320.0,53,19325.0,78,19325.0,19330.0,19320.0,19325.0,350,60,19320,37,19325,24
2016-12-22 08:13:00,08:13:07,08:13:58,4878,5118,19320.0,37,19325.0,52,19325.0,19325.0,19310.0,19310.0,212,-140,19310,35,19315,56
2016-12-22 08:14:00,08:14:09,08:14:58,5134,5288,19310.0,43,19315.0,56,19315.0,19315.0,19310.0,19310.0,123,30,19310,10,19315,56
2016-12-22 08:15:00,08:15:01,08:15:59,5297,5586,19310.0,27,19315.0,48,19310.0,19315.0,19300.0,19300.0,296,-94,19295,49,19300,19
2016-12-22 08:16:00,08:16:00,08:16:54,5590,6341,19295.0,49,19300.0,27,19295.0,19320.0,19280.0,19315.0,1258,164,19315,39,19320,40
2016-12-22 08:17:00,08:17:03,08:17:54,6349,6520,19315.0,40,19320.0,30,19320.0,19330.0,19320.0,19325.0,153,45,19325,17,19330,44
2016-12-22 08:18:00,08:18:02,08:18:55,6532,6674,19325.0,43,19330.0,30,19330.0,19330.0,19325.0,19330.0,91,-3,19325,47,19330,23
2016-12-22 08:19:00,08:19:00,08:19:57,6679,6955,19325.0,45,19330.0,29,19325.0,19330.0,19320.0,19325.0,325,-121,19320,52,19325,3
2016-12-22 08:20:00,08:20:00,08:20:59,6962,7294,19320.0,52,19325.0,7,19325.0,19325.0,19285.0,19290.0,356,-270,19285,25,19290,39
2016-12-22 08:21:00,08:21:00,08:21:59,7295,7656,19280.0,57,19290.0,40,19285.0,19300.0,19285.0,19290.0,429,112,19290,55,19295,31
2016-12-22 08:22:00,08:22:07,08:22:57,7671,7846,19290.0,59,19295.0,19,19295.0,19300.0,19290.0,19295.0,203,19,19290,51,19295,9
2016-12-22 08:23:00,08:23:18,08:23:51,7877,7954,19290.0,30,19295.0,86,19290.0,19300.0,19290.0,19295.0,60,-16,19295,19,19300,75
2016-12-22 08:24:00,08:24:06,08:24:57,7976,8071,19295.0,34,19300.0,82,19295.0,19300.0,19295.0,19300.0,57,-45,19295,46,19300,60
2016-12-22 08:25:00,08:25:16,08:25:58,8086,8214,19295.0,21,19300.0,70,19295.0,19295.0,19290.0,19290.0,130,30,19290,52,19295,18
2016-12-22 08:26:00,08:26:02,08:26:57,8224,8437,19290.0,39,19295.0,40,19290.0,19305.0,19290.0,19295.0,237,41,19295,55,19300,55
2016-12-22 08:27:00,08:27:01,08:27:59,8439,8687,19295.0,55,19300.0,39,19295.0,19310.0,19290.0,19310.0,274,20,19305,28,19310,45
2016-12-22 08:28:00,08:28:01,08:28:59,8693,8874,19305.0,32,19310.0,41,19310.0,19315.0,19305.0,19310.0,114,14,19310,25,19315,43
2016-12-22 08:29:00,08:29:05,08:29:59,8881,9135,19310.0,36,19315.0,43,19310.0,19310.0,19305.0,19305.0,303,-156,19305,9,19310,42
2016-12-22 08:30:00,08:30:00,08:30:59,9139,9285,19305.0,6,19310.0,42,19305.0,19315.0,19305.0,19310.0,108,16,19305,14,19310,48
2016-12-22 08:31:00,08:31:01,08:31:51,9289,9373,19305.0,13,19310.0,48,19305.0,19310.0,19300.0,19305.0,32,-6,19305,13,19310,49
2016-12-22 08:32:00,08:32:02,08:32:59,9391,9568,19305.0,4,19310.0,53,19305.0,19315.0,19305.0,19310.0,171,57,19305,57,19315,44
2016-12-22 08:33:00,08:33:00,08:33:41,9573,9630,19305.0,52,19310.0,15,19310.0,19310.0,19305.0,19310.0,14,0,19305,47,19310,12
2016-12-22 08:34:00,08:34:03,08:34:57,9645,9761,19305.0,49,19310.0,20,19305.0,19310.0,19300.0,19310.0,79,-13,19305,45,19310,12
2016-12-22 08:35:00,08:35:00,08:35:55,9766,10011,19305.0,45,19310.0,14,19310.0,19310.0,19300.0,19310.0,238,42,19305,47,19310,7
2016-12-22 08:36:00,08:36:06,08:36:59,10021,10120,19305.0,49,19310.0,9,19310.0,19315.0,19310.0,19310.0,58,4,19310,7,19315,42
2016-12-22 08:37:00,08:37:01,08:37:52,10123,10212,19310.0,7,19315.0,42,19310.0,19320.0,19310.0,19315.0,53,-11,19315,69,19320,56
2016-12-22 08:38:00,08:38:08,08:38:54,10220,10322,19315.0,75,19320.0,54,19320.0,19320.0,19315.0,19320.0,116,48,19315,79,19320,24
2016-12-22 08:39:00,08:39:01,08:39:58,10330,10497,19315.0,65,19320.0,45,19315.0,19325.0,19315.0,19320.0,133,-33,19320,2,19325,46
2016-12-22 08:40:00,08:40:06,08:40:54,10506,10575,19320.0,28,19325.0,43,19325.0,19330.0,19325.0,19325.0,38,14,19325,22,19330,41
2016-12-22 08:41:00,08:41:10,08:41:58,10593,10744,19325.0,25,19330.0,44,19330.0,19330.0,19325.0,19330.0,139,53,19330,8,19335,55
2016-12-22 08:42:00,08:42:07,08:42:57,10758,10938,19330.0,21,19335.0,52,19330.0,19335.0,19325.0,19330.0,148,6,19325,44,19330,19
2016-12-22 08:43:00,08:43:16,08:43:59,10951,11007,19325.0,30,19330.0,28,19330.0,19330.0,19320.0,19320.0,52,-44,19320,33,19325,70
2016-12-22 08:44:00,08:44:07,08:44:57,11014,11051,19320.0,34,19325.0,71,19325.0,19325.0,19320.0,19325.0,7,1,19320,41,19325,30
2016-12-22 08:45:00,08:45:01,08:45:58,11056,11299,19320.0,42,19325.0,29,19325.0,19345.0,19325.0,19345.0,257,102,19340,83,19345,35
2016-12-22 08:46:00,08:46:05,08:46:57,11304,11399,19340.0,83,19345.0,15,19345.0,19345.0,19340.0,19345.0,120,102,19345,32,19350,51
2016-12-22 08:47:00,08:47:05,08:47:59,11412,11563,19345.0,37,19350.0,48,19345.0,19350.0,19345.0,19350.0,183,157,19345,79,19350,37
2016-12-22 08:48:00,08:48:01,08:48:57,11566,11777,19345.0,80,19350.0,44,19350.0,19350.0,19330.0,19330.0,211,-37,19330,38,19335,27
2016-12-22 08:49:00,08:49:02,08:49:59,11784,11986,19330.0,36,19335.0,31,19335.0,19345.0,19335.0,19335.0,157,37,19335,45,19340,18
2016-12-22 08:50:00,08:50:06,08:50:51,12000,12100,19335.0,47,19340.0,10,19340.0,19340.0,19330.0,19330.0,65,-19,19330,46,19335,38
2016-12-22 08:51:00,08:51:01,08:51:59,12112,12215,19330.0,38,19335.0,43,19330.0,19340.0,19330.0,19335.0,74,-2,19330,45,19335,10
2016-12-22 08:52:00,08:52:03,08:52:41,12222,12287,19330.0,39,19335.0,28,19330.0,19335.0,19325.0,19325.0,30,-24,19325,27,19330,42
2016-12-22 08:53:00,08:53:01,08:53:55,12303,12424,19325.0,20,19330.0,43,19325.0,19335.0,19325.0,19325.0,55,-25,19325,35,19330,34
2016-12-22 08:54:00,08:54:10,08:54:57,12430,12646,19325.0,36,19330.0,32,19325.0,19355.0,19325.0,19355.0,196,142,19355,20,19360,44
2016-12-22 08:55:00,08:55:00,08:55:47,12656,12899,19355.0,25,19360.0,49,19360.0,19365.0,19355.0,19355.0,191,-51,19355,43,19360,32
2016-12-22 08:56:00,08:56:00,08:56:57,12913,13043,19355.0,38,19360.0,36,19360.0,19360.0,19345.0,19360.0,102,-36,19355,56,19360,41
2016-12-22 08:57:00,08:57:01,08:57:52,13048,13152,19355.0,56,19360.0,43,19355.0,19360.0,19345.0,19345.0,105,-89,19345,9,19350,46
2016-12-22 08:58:00,08:58:04,08:58:59,13169,13289,19345.0,4,19350.0,44,19345.0,19350.0,19340.0,19350.0,67,-5,19345,35,19350,35
2016-12-22 08:59:00,08:59:05,08:59:42,13293,13376,19345.0,35,19350.0,36,19345.0,19350.0,19345.0,19350.0,78,22,19345,63,19350,9
2016-12-22 09:00:00,09:00:04,09:00:58,13402,13550,19345.0,27,19350.0,76,19345.0,19350.0,19340.0,19350.0,108,20,19350,45,19355,21
2016-12-22 09:01:00,09:01:18,09:01:59,13573,13718,19350.0,45,19355.0,53,19350.0,19355.0,19350.0,19350.0,129,-66,19345,62,19350,10
2016-12-22 09:02:00,09:02:06,09:02:49,13729,13754,19345.0,61,19350.0,28,19345.0,19350.0,19345.0,19350.0,8,2,19350,24,19350,31
2016-12-22 09:03:00,09:03:00,09:03:51,13758,13886,19345.0,61,19350.0,34,19350.0,19360.0,19350.0,19355.0,111,53,19350,42,19355,34
2016-12-22 09:04:00,09:04:00,09:04:56,13894,14004,19350.0,48,19355.0,40,19355.0,19355.0,19350.0,19350.0,93,23,19345,39,19350,7
2016-12-22 09:05:00,09:05:08,09:05:57,14018,14070,19345.0,22,19350.0,57,19345.0,19350.0,19345.0,19345.0,27,-11,19340,61,19345,32
2016-12-22 09:06:00,09:06:14,09:06:55,14081,14197,19340.0,61,19345.0,38,19345.0,19345.0,19335.0,19340.0,97,17,19335,29,19340,34
2016-12-22 09:07:00,09:07:05,09:07:56,14207,14325,19335.0,46,19340.0,62,19340.0,19345.0,19340.0,19345.0,82,28,19340,39,19345,58
2016-12-22 09:08:00,09:08:03,09:08:57,14332,14447,19340.0,15,19345.0,62,19340.0,19345.0,19340.0,19345.0,59,-21,19340,36,19345,82
2016-12-22 09:09:00,09:09:05,09:09:57,14457,14554,19340.0,13,19345.0,84,19345.0,19345.0,19340.0,19340.0,79,11,19335,32,19340,32
2016-12-22 09:10:00,09:10:04,09:10:58,14565,14658,19335.0,60,19340.0,35,19340.0,19345.0,19340.0,19345.0,60,44,19340,59,19345,37
2016-12-22 09:11:00,09:11:08,09:11:59,14665,14867,19340.0,59,19345.0,43,19345.0,19355.0,19340.0,19355.0,165,37,19350,26,19355,54
2016-12-22 09:12:00,09:12:06,09:12:43,14874,14941,19350.0,30,19355.0,53,19350.0,19355.0,19350.0,19350.0,46,-44,19350,26,19355,51
2016-12-22 09:13:00,09:13:37,09:13:57,14966,14992,19350.0,44,19355.0,49,19355.0,19355.0,19355.0,19355.0,13,13,19350,49,19355,48
2016-12-22 09:14:00,09:14:07,09:14:36,14997,15150,19350.0,49,19355.0,52,19355.0,19365.0,19355.0,19365.0,204,94,19365,1,19370,78
2016-12-22 09:15:00,09:15:01,09:15:47,15177,15399,19365.0,27,19370.0,69,19365.0,19370.0,19365.0,19370.0,212,60,19365,72,19370,28
2016-12-22 09:16:00,09:16:16,09:16:55,15425,15495,19365.0,61,19370.0,47,19370.0,19370.0,19360.0,19360.0,102,-80,19360,58,19365,38
2016-12-22 09:17:00,09:17:04,09:17:25,15508,15575,19360.0,55,19365.0,42,19360.0,19360.0,19360.0,19360.0,85,-23,19360,65,19365,35
2016-12-22 09:18:00,09:18:12,09:18:46,15598,15712,19360.0,56,19365.0,59,19360.0,19360.0,19360.0,19360.0,113,-59,19360,51,19365,36
2016-12-22 09:19:00,09:19:07,09:19:38,15731,15809,19360.0,51,19365.0,43,19365.0,19365.0,19365.0,19365.0,55,21,19360,61,19370,64
2016-12-22 09:20:00,09:20:10,09:20:52,15842,15885,19360.0,54,19365.0,36,19360.0,19360.0,19360.0,19360.0,5,-5,19360,45,19365,83
2016-12-22 09:21:00,09:21:03,09:21:48,15891,15936,19360.0,56,19365.0,81,19360.0,19365.0,19360.0,19360.0,5,-3,19360,33,19365,68
2016-12-22 09:22:00,09:22:05,09:22:55,15949,15981,19360.0,31,19365.0,69,19365.0,19365.0,19360.0,19360.0,10,-8,19355,47,19360,59
2016-12-22 09:23:00,09:23:05,09:23:55,15992,16129,19355.0,44,19360.0,67,19360.0,19360.0,19350.0,19355.0,130,6,19355,4,19360,54
2016-12-22 09:24:00,09:24:33,09:24:45,16159,16198,19350.0,84,19355.0,28,19355.0,19355.0,19355.0,19355.0,40,18,19350,91,19355,2
2016-12-22 09:25:00,09:25:00,09:25:00,0,0,0.0,0,0.0,0,19355.0,19355.0,19355.0,19355.0,0,0,0,0,0,0
2016-12-22 09:26:00,09:26:00,09:26:42,16230,16266,19350.0,85,19355.0,42,19350.0,19355.0,19350.0,19350.0,7,-5,19350,84,19355,44
2016-12-22 09:27:00,09:27:03,09:27:52,16273,16437,19350.0,83,19355.0,48,19355.0,19355.0,19350.0,19350.0,201,-143,19350,47,19355,64
2016-12-22 09:28:00,09:28:00,09:28:59,16442,16524,19350.0,55,19355.0,65,19350.0,19350.0,19350.0,19350.0,72,-72,19345,53,19350,3
2016-12-22 09:29:00,09:29:00,09:29:59,16527,16684,19345.0,53,19350.0,3,19350.0,19350.0,19350.0,19350.0,195,-10,19350,4,19355,65
2016-12-22 09:30:00,09:30:05,09:30:54,16693,16780,19350.0,22,19355.0,65,19355.0,19355.0,19350.0,19350.0,100,44,19350,48,19355,39
2016-12-22 09:31:00,09:31:00,09:31:00,0,0,0.0,0,0.0,0,19350.0,19350.0,19350.0,19350.0,0,0,0,0,0,0
2016-12-22 09:32:00,09:32:08,09:32:59,16860,16966,19350.0,42,19355.0,48,19355.0,19355.0,19350.0,19350.0,101,-39,19345,78,19350,15
2016-12-22 09:33:00,09:33:00,09:33:55,16969,17013,19345.0,78,19350.0,15,19350.0,19350.0,19350.0,19350.0,18,12,19350,18,19355,50
2016-12-22 09:34:00,09:34:02,09:34:02,17015,17015,19350.0,18,19355.0,51,19355.0,19355.0,19355.0,19355.0,1,1,19350,17,19355,50
2016-12-22 09:35:00,09:35:04,09:35:26,17064,17092,19350.0,40,19355.0,48,19355.0,19355.0,19350.0,19350.0,4,-2,19350,42,19355,48
2016-12-22 09:36:00,09:36:03,09:36:57,17110,17169,19350.0,44,19355.0,47,19355.0,19355.0,19350.0,19350.0,26,16,19350,44,19355,33
2016-12-22 09:37:00,09:37:01,09:37:41,17175,17331,19350.0,25,19355.0,36,19350.0,19355.0,19350.0,19355.0,164,-2,19350,50,19355,27
2016-12-22 09:38:00,09:38:19,09:38:28,17352,17375,19350.0,33,19355.0,50,19350.0,19350.0,19350.0,19350.0,26,-26,19345,74,19355,65
2016-12-22 09:39:00,09:39:20,09:39:59,17405,17465,19350.0,25,19355.0,60,19350.0,19350.0,19350.0,19350.0,52,-52,19350,8,19350,35
2016-12-22 09:40:00,09:40:09,09:40:57,17471,17604,19350.0,14,19355.0,76,19350.0,19355.0,19345.0,19355.0,174,48,19350,51,19355,11
2016-12-22 09:41:00,09:41:30,09:41:30,17628,17629,19350.0,46,19355.0,37,19350.0,19350.0,19350.0,19350.0,3,-3,19350,45,19355,38
2016-12-22 09:42:00,09:42:12,09:42:46,17648,17754,19350.0,46,19355.0,40,19355.0,19355.0,19350.0,19350.0,86,-4,19345,45,19350,23
2016-12-22 09:43:00,09:43:01,09:43:37,17770,17859,19345.0,26,19350.0,40,19345.0,19350.0,19345.0,19345.0,70,-22,19340,57,19345,22
2016-12-22 09:44:00,09:44:00,09:44:58,17884,17991,19340.0,53,19345.0,29,19345.0,19350.0,19345.0,19350.0,61,31,19350,5,19355,50
2016-12-22 09:45:00,09:45:00,09:45:00,17998,17998,19350.0,18,19355.0,57,19350.0,19350.0,19350.0,19350.0,2,-2,19350,10,19355,62
2016-12-22 09:46:00,09:46:02,09:46:55,18038,18211,19350.0,40,19355.0,34,19355.0,19355.0,19345.0,19345.0,185,1,19345,7,19350,76
2016-12-22 09:47:00,09:47:06,09:47:57,18234,18297,19345.0,11,19350.0,130,19345.0,19345.0,19345.0,19345.0,28,-14,19340,65,19345,6
2016-12-22 09:48:00,09:48:19,09:48:59,18328,18435,19340.0,59,19345.0,34,19345.0,19345.0,19340.0,19345.0,73,-27,19340,44,19345,27
2016-12-22 09:49:00,09:49:04,09:49:50,18445,18609,19340.0,49,19345.0,31,19340.0,19355.0,19340.0,19350.0,229,121,19345,10,19350,86
2016-12-22 09:50:00,09:50:00,09:50:53,18618,18731,19345.0,17,19350.0,99,19350.0,19350.0,19345.0,19345.0,48,14,19340,57,19350,138
2016-12-22 09:51:00,09:51:00,09:51:57,18741,18851,19345.0,30,19350.0,135,19350.0,19350.0,19350.0,19350.0,174,106,19345,49,19350,2
2016-12-22 09:52:00,09:52:01,09:52:58,18863,19055,19345.0,36,19350.0,80,19350.0,19360.0,19345.0,19355.0,192,-70,19350,52,19355,30
2016-12-22 09:53:00,09:53:11,09:53:57,19074,19368,19350.0,45,19355.0,40,19350.0,19355.0,19345.0,19355.0,407,-89,19350,52,19355,8
2016-12-22 09:54:00,09:54:03,09:54:34,19378,19465,19350.0,54,19355.0,11,19355.0,19360.0,19355.0,19355.0,67,-37,19355,37,19360,49
2016-12-22 09:55:00,09:55:01,09:55:39,19480,19556,19355.0,38,19360.0,50,19355.0,19355.0,19350.0,19355.0,75,-67,19350,28,19355,58
2016-12-22 09:56:00,09:56:39,09:56:39,19598,19599,19350.0,39,19355.0,40,19350.0,19350.0,19350.0,19350.0,3,-3,19350,38,19355,41
2016-12-22 09:57:00,09:57:02,09:57:50,19617,19697,19350.0,34,19355.0,46,19355.0,19355.0,19355.0,19355.0,19,19,19350,58,19355,11
2016-12-22 09:58:00,09:58:01,09:58:33,19719,19799,19350.0,46,19355.0,36,19355.0,19355.0,19345.0,19345.0,68,-66,19345,10,19350,45
2016-12-22 09:59:00,09:59:41,09:59:56,19854,19873,19345.0,20,19350.0,46,19345.0,19345.0,19345.0,19345.0,22,-18,19340,37,19345,35
2016-12-22 10:00:00,10:00:02,10:00:59,19890,20056,19340.0,31,19345.0,51,19340.0,19340.0,19330.0,19335.0,120,3,19335,10,19340,65
2016-12-22 10:01:00,10:01:02,10:01:56,20062,20193,19335.0,5,19340.0,66,19335.0,19335.0,19330.0,19335.0,74,-3,19330,41,19335,9
2016-12-22 10:02:00,10:02:10,10:02:57,20202,20299,19330.0,43,19335.0,6,19335.0,19335.0,19335.0,19335.0,45,-23,19335,4,19340,66
2016-12-22 10:03:00,10:03:17,10:03:33,20323,20357,19335.0,27,19340.0,63,19335.0,19335.0,19335.0,19335.0,28,-28,19335,17,19340,91
2016-12-22 10:04:00,10:04:13,10:04:51,20403,20444,19335.0,32,19340.0,73,19335.0,19340.0,19335.0,19340.0,43,35,19340,36,19345,46
2016-12-22 10:05:00,10:05:05,10:05:44,20458,20550,19340.0,40,19345.0,41,19345.0,19345.0,19345.0,19345.0,70,56,19345,9,19350,55
2016-12-22 10:06:00,10:06:00,10:06:00,0,0,0.0,0,0.0,0,19345.0,19345.0,19345.0,19345.0,0,0,0,0,0,0
2016-12-22 10:07:00,10:07:00,10:07:33,20637,20723,19345.0,15,19350.0,58,19345.0,19345.0,19340.0,19345.0,61,9,19340,51,19350,56
2016-12-22 10:08:00,10:08:17,10:08:47,20739,20807,19340.0,59,19345.0,7,19345.0,19345.0,19340.0,19345.0,27,-7,19340,61,19345,41
2016-12-22 10:09:00,10:09:00,10:09:00,0,0,0.0,0,0.0,0,19345.0,19345.0,19345.0,19345.0,0,0,0,0,0,0
2016-12-22 10:10:00,10:10:12,10:10:38,20842,20900,19340.0,76,19345.0,57,19345.0,19345.0,19340.0,19345.0,73,11,19340,49,19345,36
2016-12-22 10:11:00,10:11:22,10:11:48,20919,20970,19340.0,48,19345.0,42,19345.0,19345.0,19345.0,19345.0,58,52,19345,5,19350,59
2016-12-22 10:12:00,10:12:11,10:12:12,20995,21008,19345.0,17,19350.0,58,19345.0,19345.0,19345.0,19345.0,18,-18,19340,58,19345,39
2016-12-22 10:13:00,10:13:19,10:13:58,21055,21096,19340.0,55,19345.0,48,19340.0,19345.0,19340.0,19345.0,45,39,19345,25,19350,42
2016-12-22 10:14:00,10:14:01,10:14:50,21103,21217,19345.0,41,19350.0,54,19350.0,19355.0,19345.0,19350.0,83,17,19350,31,19355,38
2016-12-22 10:15:00,10:15:09,10:15:54,21228,21342,19350.0,32,19355.0,40,19355.0,19355.0,19355.0,19355.0,112,72,19355,6,19360,60
2016-12-22 10:16:00,10:16:20,10:16:20,21367,21367,19355.0,43,19360.0,54,19355.0,19355.0,19355.0,19355.0,3,-3,19355,40,19360,53
2016-12-22 10:17:00,10:17:04,10:17:57,21391,21516,19355.0,80,19360.0,56,19355.0,19355.0,19350.0,19355.0,161,-59,19355,14,19360,56
2016-12-22 10:18:00,10:18:13,10:18:51,21539,21622,19355.0,8,19360.0,59,19355.0,19355.0,19355.0,19355.0,58,14,19350,50,19355,2
2016-12-22 10:19:00,10:19:22,10:19:34,21647,21656,19350.0,37,19355.0,50,19350.0,19355.0,19350.0,19355.0,4,-2,19350,37,19355,50
2016-12-22 10:20:00,10:20:02,10:20:53,21687,21819,19350.0,43,19355.0,52,19355.0,19355.0,19350.0,19355.0,160,26,19355,19,19360,53
2016-12-22 10:21:00,10:21:45,10:21:49,21863,21900,19355.0,36,19360.0,47,19360.0,19360.0,19360.0,19360.0,44,4,19355,51,19360,2
2016-12-22 10:22:00,10:22:01,10:22:59,21916,21987,19360.0,12,19365.0,56,19360.0,19360.0,19360.0,19360.0,51,-27,19360,10,19365,50
2016-12-22 10:23:00,10:23:01,10:23:55,21992,22061,19360.0,8,19365.0,50,19360.0,19360.0,19360.0,19360.0,41,-18,19360,2,19365,50
2016-12-22 10:24:00,10:24:00,10:24:45,22067,22179,19360.0,3,19365.0,55,19360.0,19360.0,19360.0,19360.0,99,65,19360,9,19365,51
2016-12-22 10:25:00,10:25:15,10:25:26,22208,22247,19360.0,29,19365.0,38,19365.0,19365.0,19360.0,19365.0,42,36,19360,40,19365,6
2016-12-22 10:26:00,10:26:04,10:26:53,22284,22453,19360.0,40,19365.0,23,19365.0,19365.0,19355.0,19355.0,151,-57,19350,66,19355,7
2016-12-22 10:27:00,10:27:03,10:27:53,22460,22572,19350.0,56,19355.0,12,19355.0,19360.0,19355.0,19360.0,86,54,19355,84,19360,200
2016-12-22 10:28:00,10:28:03,10:28:55,22586,22692,19355.0,59,19360.0,204,19355.0,19370.0,19355.0,19370.0,307,193,19365,45,19370,6
2016-12-22 10:29:00,10:29:29,10:29:59,22720,22843,19365.0,35,19370.0,35,19365.0,19365.0,19360.0,19360.0,117,-77,19360,65,19365,29
2016-12-22 10:30:00,10:30:24,10:30:24,22871,22875,19360.0,56,19365.0,40,19365.0,19365.0,19365.0,19365.0,7,7,19360,57,19365,26
2016-12-22 10:31:00,10:31:07,10:31:18,22899,22917,19360.0,88,19365.0,60,19365.0,19365.0,19360.0,19360.0,6,-4,19360,87,19365,39
2016-12-22 10:32:00,10:32:02,10:32:26,22929,22937,19360.0,81,19365.0,54,19365.0,19365.0,19365.0,19365.0,2,2,19360,82,19365,54
2016-12-22 10:33:00,10:33:05,10:33:19,22964,23016,19360.0,88,19365.0,47,19365.0,19365.0,19360.0,19360.0,87,-51,19360,8,19365,50
2016-12-22 10:34:00,10:34:00,10:34:00,0,0,0.0,0,0.0,0,19360.0,19360.0,19360.0,19360.0,0,0,0,0,0,0
2016-12-22 10:35:00,10:35:08,10:35:13,23081,23086,19360.0,42,19365.0,42,19360.0,19365.0,19360.0,19360.0,3,-1,19360,42,19365,35
2016-12-22 10:36:00,10:36:06,10:36:06,23108,23109,19360.0,51,19365.0,17,19365.0,19365.0,19365.0,19365.0,2,2,19360,52,19365,18
2016-12-22 10:37:00,10:37:05,10:37:59,23142,23153,19360.0,47,19365.0,33,19365.0,19365.0,19365.0,19365.0,2,2,19360,53,19365,28
2016-12-22 10:38:00,10:38:06,10:38:50,23158,23210,19360.0,55,19365.0,28,19365.0,19365.0,19365.0,19365.0,34,-4,19360,51,19365,8
2016-12-22 10:39:00,10:39:19,10:39:38,23231,23250,19360.0,79,19365.0,28,19365.0,19365.0,19365.0,19365.0,16,16,19360,79,19365,5
2016-12-22 10:40:00,10:40:02,10:40:20,23271,23309,19360.0,65,19365.0,35,19365.0,19365.0,19365.0,19365.0,32,20,19360,75,19365,16
2016-12-22 10:41:00,10:41:00,10:41:53,23319,23476,19360.0,40,19365.0,128,19360.0,19360.0,19360.0,19360.0,299,-201,19355,47,19360,32
2016-12-22 10:42:00,10:42:14,10:42:34,23490,23497,19355.0,86,19360.0,43,19355.0,19360.0,19355.0,19360.0,3,-1,19355,84,19360,44
2016-12-22 10:43:00,10:43:06,10:43:22,23504,23515,19355.0,85,19360.0,42,19360.0,19360.0,19360.0,19360.0,8,8,19355,85,19360,36
2016-12-22 10:44:00,10:44:02,10:44:02,23524,23524,19355.0,84,19360.0,38,19360.0,19360.0,19360.0,19360.0,1,1,19355,83,19360,37
2016-12-22 10:45:00,10:45:05,10:45:05,23554,23554,19355.0,72,19360.0,45,19360.0,19360.0,19360.0,19360.0,1,1,19355,69,19360,46
2016-12-22 10:46:00,10:46:04,10:46:29,23569,23602,19355.0,62,19360.0,48,19355.0,19355.0,19355.0,19355.0,67,-57,19350,56,19355,29
2016-12-22 10:47:00,10:47:05,10:47:59,23613,23695,19350.0,58,19355.0,46,19355.0,19365.0,19355.0,19365.0,93,93,19360,61,19365,33
2016-12-22 10:48:00,10:48:03,10:48:10,23701,23741,19360.0,65,19365.0,11,19365.0,19365.0,19365.0,19365.0,91,-17,19365,10,19370,49
2016-12-22 10:49:00,10:49:18,10:49:46,23770,23847,19365.0,34,19370.0,51,19365.0,19365.0,19365.0,19365.0,111,-105,19365,3,19370,50
2016-12-22 10:50:00,10:50:40,10:50:40,23867,23880,19365.0,19,19370.0,51,19365.0,19365.0,19365.0,19365.0,18,-18,19360,49,19365,42
2016-12-22 10:51:00,10:51:12,10:51:54,23888,23923,19360.0,63,19365.0,41,19365.0,19365.0,19365.0,19365.0,38,38,19360,45,19365,43
2016-12-22 10:52:00,10:52:04,10:52:33,23924,23933,19360.0,46,19365.0,42,19365.0,19365.0,19365.0,19365.0,3,3,19360,48,19365,41
2016-12-22 10:53:00,10:53:02,10:53:57,23939,24036,19360.0,45,19365.0,43,19365.0,19365.0,19360.0,19360.0,149,-53,19360,33,19365,37
2016-12-22 10:54:00,10:54:05,10:54:13,24045,24090,19360.0,41,19365.0,28,19365.0,19365.0,19365.0,19365.0,78,-30,19365,6,19370,54
2016-12-22 10:55:00,10:55:00,10:55:00,0,0,0.0,0,0.0,0,19365.0,19365.0,19365.0,19365.0,0,0,0,0,0,0
2016-12-22 10:56:00,10:56:05,10:56:35,24125,24139,19365.0,43,19370.0,50,19370.0,19370.0,19370.0,19370.0,3,3,19365,44,19370,40
2016-12-22 10:57:00,10:57:05,10:57:05,24153,24172,19365.0,35,19370.0,50,19370.0,19370.0,19365.0,19365.0,33,-29,19365,11,19370,52
2016-12-22 10:58:00,10:58:09,10:58:45,24196,24220,19365.0,37,19370.0,47,19370.0,19370.0,19365.0,19365.0,24,-8,19360,50,19370,53
2016-12-22 10:59:00,10:59:24,10:59:44,24234,24305,19360.0,35,19365.0,37,19360.0,19360.0,19355.0,19360.0,96,22,19355,71,19360,12
2016-12-22 11:00:00,11:00:23,11:00:50,24332,24354,19355.0,62,19360.0,32,19360.0,19360.0,19360.0,19360.0,3,3,19355,66,19360,22
2016-12-22 11:01:00,11:01:04,11:01:38,24360,24389,19355.0,67,19360.0,22,19360.0,19360.0,19360.0,19360.0,5,5,19355,66,19360,17
2016-12-22 11:02:00,11:02:06,11:02:58,24404,24434,19355.0,68,19360.0,16,19360.0,19360.0,19360.0,19360.0,11,11,19355,66,19360,37
2016-12-22 11:03:00,11:03:31,11:03:51,24448,24497,19355.0,63,19360.0,40,19355.0,19355.0,19355.0,19355.0,53,-23,19355,10,19360,53
2016-12-22 11:04:00,11:04:23,11:04:23,24521,24521,19355.0,44,19360.0,55,19355.0,19355.0,19355.0,19355.0,1,-1,19355,42,19360,56
2016-12-22 11:05:00,11:05:05,11:05:34,24530,24574,19355.0,40,19360.0,57,19360.0,19360.0,19355.0,19355.0,53,-39,19350,60,19360,64
2016-12-22 11:06:00,11:06:24,11:06:44,24589,24649,19350.0,50,19355.0,33,19355.0,19355.0,19350.0,19355.0,71,31,19350,51,19355,6
2016-12-22 11:07:00,11:07:10,11:07:21,24662,24678,19355.0,12,19360.0,55,19355.0,19355.0,19355.0,19355.0,24,-2,19350,50,19355,5
2016-12-22 11:08:00,11:08:01,11:08:29,24691,24797,19350.0,44,19355.0,36,19350.0,19350.0,19345.0,19345.0,141,-139,19340,51,19350,58
2016-12-22 11:09:00,11:09:25,11:09:35,24831,24849,19340.0,59,19345.0,20,19345.0,19345.0,19345.0,19345.0,15,5,19340,58,19345,47
2016-12-22 11:10:00,11:10:00,11:10:00,0,0,0.0,0,0.0,0,19345.0,19345.0,19345.0,19345.0,0,0,0,0,0,0
2016-12-22 11:11:00,11:11:03,11:11:50,24875,24884,19340.0,56,19345.0,75,19345.0,19345.0,19345.0,19345.0,28,28,19340,60,19345,39
2016-12-22 11:12:00,11:12:06,11:12:21,24886,24911,19340.0,61,19345.0,39,19345.0,19345.0,19340.0,19340.0,48,44,19340,53,19345,33
2016-12-22 11:13:00,11:13:15,11:13:40,24947,24981,19340.0,51,19345.0,38,19340.0,19340.0,19340.0,19340.0,27,-27,19340,43,19345,35
2016-12-22 11:14:00,11:14:43,11:14:43,24999,24999,19340.0,42,19345.0,38,19340.0,19340.0,19340.0,19340.0,1,-1,19340,41,19345,39
2016-12-22 11:15:00,11:15:03,11:15:04,25016,25021,19340.0,48,19345.0,33,19345.0,19345.0,19340.0,19340.0,4,0,19340,46,19345,29
2016-12-22 11:16:00,11:16:15,11:16:15,25054,25055,19340.0,38,19345.0,76,19345.0,19345.0,19345.0,19345.0,2,2,19340,34,19345,75
2016-12-22 11:17:00,11:17:06,11:17:24,25076,25127,19340.0,40,19345.0,61,19345.0,19345.0,19345.0,19345.0,97,97,19345,5,19350,58
2016-12-22 11:18:00,11:18:33,11:18:44,25160,25174,19340.0,47,19345.0,23,19345.0,19345.0,19345.0,19345.0,10,10,19340,76,19350,60
2016-12-22 11:19:00,11:19:05,11:19:37,25189,25219,19340.0,79,19345.0,9,19345.0,19345.0,19345.0,19345.0,45,-17,19340,50,19345,10
2016-12-22 11:20:00,11:20:36,11:20:38,25242,25250,19340.0,52,19345.0,3,19345.0,19345.0,19345.0,19345.0,8,8,19340,52,19350,60
2016-12-22 11:21:00,11:21:00,11:21:00,0,0,0.0,0,0.0,0,19345.0,19345.0,19345.0,19345.0,0,0,0,0,0,0
2016-12-22 11:22:00,11:22:04,11:22:45,25270,25302,19345.0,49,19350.0,52,19350.0,19350.0,19345.0,19345.0,49,-45,19340,39,19345,36
2016-12-22 11:23:00,11:23:01,11:23:01,25314,25314,19340.0,49,19345.0,54,19345.0,19345.0,19345.0,19345.0,10,10,19340,51,19345,43
2016-12-22 11:24:00,11:24:08,11:24:15,25339,25348,19340.0,43,19345.0,52,19345.0,19345.0,19340.0,19340.0,2,0,19340,37,19345,52
2016-12-22 11:25:00,11:25:03,11:25:03,25373,25373,19340.0,41,19345.0,51,19345.0,19345.0,19345.0,19345.0,1,1,19340,40,19345,47
2016-12-22 11:26:00,11:26:07,11:26:07,25394,25394,19340.0,48,19345.0,42,19345.0,19345.0,19345.0,19345.0,1,1,19340,47,19345,41
2016-12-22 11:27:00,11:27:09,11:27:15,25417,25449,19340.0,56,19345.0,37,19345.0,19345.0,19345.0,19345.0,58,2,19340,41,19345,53
2016-12-22 11:28:00,11:28:39,11:28:39,25467,25467,19340.0,50,19345.0,61,19345.0,19345.0,19345.0,19345.0,20,20,19340,53,19345,44
2016-12-22 11:29:00,11:29:12,11:29:50,25477,25542,19340.0,50,19345.0,47,19345.0,19345.0,19345.0,19345.0,99,99,19340,48,19350,54
2016-12-22 11:30:00,11:30:00,11:30:55,25553,25738,19340.0,60,19345.0,23,19345.0,19345.0,19335.0,19340.0,184,24,19335,50,19340,15
2016-12-22 11:31:00,11:31:10,11:31:58,25757,25939,19335.0,36,19340.0,35,19335.0,19340.0,19335.0,19340.0,211,-15,19340,8,19345,54
2016-12-22 11:32:00,11:32:33,11:32:57,25972,26044,19340.0,10,19345.0,73,19345.0,19345.0,19335.0,19335.0,61,-25,19335,12,19340,39
2016-12-22 11:33:00,11:33:24,11:33:24,26063,26083,19335.0,33,19340.0,43,19340.0,19340.0,19340.0,19340.0,28,28,19335,50,19340,8
2016-12-22 11:34:00,11:34:02,11:34:21,26109,26167,19335.0,46,19340.0,34,19335.0,19335.0,19330.0,19330.0,49,-45,19330,24,19335,33
2016-12-22 11:35:00,11:35:43,11:35:43,26193,26193,19330.0,53,19335.0,68,19335.0,19335.0,19335.0,19335.0,1,1,19330,52,19335,67
2016-12-22 11:36:00,11:36:08,11:36:48,26198,26334,19330.0,53,19335.0,68,19335.0,19335.0,19320.0,19320.0,108,-84,19320,23,19325,43
2016-12-22 11:37:00,11:37:02,11:37:02,26353,26353,19320.0,15,19325.0,67,19320.0,19320.0,19320.0,19320.0,1,-1,19320,16,19325,68
2016-12-22 11:38:00,11:38:03,11:38:50,26381,26562,19320.0,55,19325.0,47,19325.0,19335.0,19325.0,19330.0,211,-16,19330,10,19335,46
2016-12-22 11:39:00,11:39:12,11:39:43,26583,26690,19330.0,33,19335.0,30,19335.0,19340.0,19335.0,19340.0,104,24,19340,3,19345,61
2016-12-22 11:40:00,11:40:15,11:40:51,26712,26760,19340.0,45,19345.0,64,19340.0,19340.0,19340.0,19340.0,34,-34,19340,7,19345,63
2016-12-22 11:41:00,11:41:34,11:41:34,26795,26800,19340.0,27,19345.0,66,19340.0,19340.0,19340.0,19340.0,10,-10,19340,8,19345,68
2016-12-22 11:42:00,11:42:05,11:42:58,26826,27026,19340.0,12,19345.0,75,19340.0,19340.0,19335.0,19335.0,249,-10,19330,59,19335,1
2016-12-22 11:43:00,11:43:01,11:43:55,27029,27079,19330.0,58,19335.0,8,19335.0,19335.0,19335.0,19335.0,44,44,19330,95,19335,9
2016-12-22 11:44:00,11:44:01,11:44:40,27084,27205,19330.0,95,19335.0,12,19335.0,19340.0,19335.0,19340.0,107,45,19340,13,19345,61
2016-12-22 11:45:00,11:45:47,11:45:47,27244,27261,19340.0,27,19345.0,64,19340.0,19340.0,19340.0,19340.0,21,-21,19340,22,19345,67
2016-12-22 11:46:00,11:46:23,11:46:54,27289,27342,19340.0,33,19345.0,72,19340.0,19340.0,19340.0,19340.0,60,-60,19335,60,19340,35
2016-12-22 11:47:00,11:47:01,11:47:57,27349,27551,19335.0,60,19340.0,43,19335.0,19335.0,19325.0,19325.0,385,-301,19320,51,19330,107
2016-12-22 11:48:00,11:48:01,11:48:57,27557,27811,19320.0,50,19325.0,21,19320.0,19325.0,19320.0,19320.0,464,-12,19315,74,19325,64
2016-12-22 11:49:00,11:49:03,11:49:51,27823,28033,19315.0,67,19320.0,69,19315.0,19315.0,19305.0,19310.0,245,-109,19305,50,19310,54
2016-12-22 11:50:00,11:50:02,11:50:49,28051,28191,19305.0,20,19310.0,92,19305.0,19310.0,19300.0,19300.0,267,-149,19300,18,19305,78
2016-12-22 11:51:00,11:51:08,11:51:55,28208,28319,19300.0,60,19305.0,83,19300.0,19310.0,19300.0,19310.0,193,-13,19310,63,19315,32
2016-12-22 11:52:00,11:52:08,11:52:31,28329,28559,19310.0,63,19315.0,36,19310.0,19310.0,19300.0,19310.0,347,-127,19310,50,19315,32
2016-12-22 11:53:00,11:53:05,11:53:52,28592,28698,19310.0,71,19315.0,42,19315.0,19320.0,19315.0,19320.0,90,30,19320,39,19325,31
2016-12-22 11:54:00,11:54:03,11:54:30,28707,28751,19320.0,68,19325.0,36,19325.0,19325.0,19320.0,19320.0,35,-27,19320,26,19325,34
2016-12-22 11:55:00,11:55:37,11:55:59,28795,28904,19320.0,60,19325.0,49,19325.0,19325.0,19320.0,19325.0,144,88,19320,64,19325,14
2016-12-22 11:56:00,11:56:02,11:56:52,28910,29113,19320.0,64,19325.0,2,19325.0,19335.0,19325.0,19330.0,225,31,19330,7,19335,54
2016-12-22 11:57:00,11:57:35,11:57:35,29144,29144,19330.0,68,19335.0,16,19335.0,19335.0,19335.0,19335.0,1,1,19330,67,19335,18
2016-12-22 11:58:00,11:58:08,11:58:08,29159,29159,19330.0,66,19335.0,28,19335.0,19335.0,19335.0,19335.0,1,1,19330,65,19335,27
2016-12-22 11:59:00,11:59:08,11:59:08,29186,29186,19330.0,30,19335.0,66,19335.0,19335.0,19335.0,19335.0,1,1,19330,29,19335,65
2016-12-22 12:00:00,12:00:00,12:00:30,29211,29282,19330.0,44,19335.0,33,19335.0,19335.0,19330.0,19330.0,72,14,19330,50,19335,53
2016-12-22 12:01:00,12:01:07,12:01:07,29289,29289,19330.0,53,19335.0,52,19335.0,19335.0,19335.0,19335.0,1,1,19330,52,19335,50
2016-12-22 12:02:00,12:02:02,12:02:43,29316,29413,19330.0,84,19335.0,49,19335.0,19340.0,19335.0,19340.0,109,35,19340,19,19345,55
2016-12-22 12:03:00,12:03:00,12:03:00,0,0,0.0,0,0.0,0,19340.0,19340.0,19340.0,19340.0,0,0,0,0,0,0
2016-12-22 12:04:00,12:04:03,12:04:47,29461,29555,19340.0,74,19345.0,40,19345.0,19345.0,19345.0,19345.0,125,-7,19340,68,19345,31
2016-12-22 12:05:00,12:05:30,12:05:43,29576,29586,19340.0,60,19345.0,39,19345.0,19345.0,19345.0,19345.0,9,9,19340,59,19345,32
2016-12-22 12:06:00,12:06:03,12:06:27,29598,29621,19340.0,62,19345.0,33,19345.0,19345.0,19340.0,19345.0,16,6,19340,71,19345,8
2016-12-22 12:07:00,12:07:08,12:07:08,29644,29644,19340.0,65,19345.0,25,19345.0,19345.0,19345.0,19345.0,1,1,19340,63,19345,28
2016-12-22 12:08:00,12:08:05,12:08:55,29663,29767,19340.0,58,19345.0,31,19345.0,19345.0,19340.0,19345.0,109,-15,19340,70,19350,70
2016-12-22 12:09:00,12:09:02,12:09:51,29771,29859,19340.0,69,19350.0,73,19345.0,19345.0,19335.0,19335.0,113,-100,19335,8,19340,72
2016-12-22 12:10:00,12:10:04,12:10:44,29879,29993,19335.0,41,19340.0,68,19340.0,19345.0,19340.0,19345.0,101,19,19340,59,19345,10
2016-12-22 12:11:00,12:11:38,12:11:59,30014,30068,19340.0,53,19345.0,21,19345.0,19345.0,19345.0,19345.0,60,-32,19345,5,19350,71
2016-12-22 12:12:00,12:12:04,12:12:59,30074,30153,19345.0,2,19350.0,75,19345.0,19345.0,19340.0,19340.0,71,-57,19335,66,19340,10
2016-12-22 12:13:00,12:13:20,12:13:20,30161,30186,19335.0,65,19340.0,30,19340.0,19340.0,19340.0,19340.0,54,54,19340,41,19345,62
2016-12-22 12:14:00,12:14:07,12:14:10,30195,30202,19340.0,34,19345.0,60,19345.0,19345.0,19340.0,19340.0,3,-1,19340,34,19345,59
2016-12-22 12:15:00,12:15:06,12:15:08,30234,30239,19340.0,32,19345.0,70,19345.0,19345.0,19340.0,19340.0,3,-1,19340,31,19345,69
2016-12-22 12:16:00,12:16:05,12:16:46,30264,30288,19340.0,36,19345.0,71,19345.0,19345.0,19340.0,19340.0,6,-4,19340,29,19345,69
2016-12-22 12:17:00,12:17:01,12:17:24,30293,30307,19340.0,31,19345.0,69,19345.0,19345.0,19345.0,19345.0,2,2,19340,32,19345,65
2016-12-22 12:18:00,12:18:05,12:18:52,30319,30353,19340.0,28,19345.0,74,19345.0,19345.0,19340.0,19340.0,7,-5,19340,23,19345,73
2016-12-22 12:19:00,12:19:09,12:19:18,30368,30394,19340.0,28,19345.0,72,19345.0,19345.0,19340.0,19340.0,28,-26,19335,70,19345,99
2016-12-22 12:20:00,12:20:00,12:20:00,0,0,0.0,0,0.0,0,19340.0,19340.0,19340.0,19340.0,0,0,0,0,0,0
2016-12-22 12:21:00,12:21:07,12:21:09,30423,30428,19340.0,24,19345.0,109,19345.0,19345.0,19340.0,19340.0,2,0,19340,26,19345,109
2016-12-22 12:22:00,12:22:02,12:22:45,30441,30518,19340.0,30,19345.0,109,19345.0,19350.0,19340.0,19340.0,147,-9,19340,61,19345,41
2016-12-22 12:23:00,12:23:01,12:23:59,30528,30613,19340.0,64,19345.0,27,19345.0,19350.0,19340.0,19340.0,77,3,19335,77,19340,2
2016-12-22 12:24:00,12:24:02,12:24:52,30617,30709,19335.0,77,19340.0,9,19340.0,19340.0,19335.0,19335.0,61,-33,19330,67,19335,4
2016-12-22 12:25:00,12:25:21,12:25:35,30733,30769,19330.0,67,19335.0,24,19335.0,19335.0,19335.0,19335.0,30,26,19335,7,19340,69
2016-12-22 12:26:00,12:26:10,12:26:37,30796,30828,19335.0,30,19340.0,49,19335.0,19340.0,19335.0,19340.0,22,-20,19335,15,19340,61
2016-12-22 12:27:00,12:27:10,12:27:11,30849,30888,19335.0,36,19340.0,49,19340.0,19340.0,19340.0,19340.0,50,28,19340,3,19345,97
2016-12-22 12:28:00,12:28:40,12:28:55,30943,30998,19340.0,35,19345.0,58,19345.0,19345.0,19340.0,19345.0,77,63,19345,3,19350,84
2016-12-22 12:29:00,12:29:06,12:29:52,31009,31148,19345.0,26,19350.0,80,19350.0,19355.0,19350.0,19355.0,158,118,19355,8,19360,70
2016-12-22 12:30:00,12:30:03,12:30:57,31164,31277,19355.0,20,19360.0,72,19360.0,19360.0,19355.0,19355.0,107,-29,19350,62,19355,22
2016-12-22 12:31:00,12:31:03,12:31:50,31280,31301,19350.0,62,19355.0,22,19355.0,19355.0,19355.0,19355.0,27,17,19350,33,19355,36
2016-12-22 12:32:00,12:32:33,12:32:52,31330,31414,19350.0,60,19355.0,41,19350.0,19350.0,19345.0,19345.0,147,-77,19345,17,19345,11
2016-12-22 12:33:00,12:33:00,12:33:58,31418,31516,19345.0,7,19350.0,75,19345.0,19350.0,19345.0,19350.0,72,-14,19345,39,19350,30
2016-12-22 12:34:00,12:34:00,12:34:00,0,0,0.0,0,0.0,0,19350.0,19350.0,19350.0,19350.0,0,0,0,0,0,0
2016-12-22 12:35:00,12:35:03,12:35:22,31561,31603,19345.0,59,19350.0,38,19350.0,19355.0,19350.0,19350.0,38,10,19350,9,19355,50
2016-12-22 12:36:00,12:36:02,12:36:55,31626,31723,19350.0,22,19355.0,62,19355.0,19355.0,19350.0,19355.0,76,-30,19350,26,19355,54
2016-12-22 12:37:00,12:37:05,12:37:56,31733,31802,19350.0,27,19355.0,56,19355.0,19355.0,19350.0,19350.0,47,-15,19350,2,19355,70
2016-12-22 12:38:00,12:38:00,12:38:52,31811,31932,19350.0,18,19355.0,70,19350.0,19350.0,19345.0,19345.0,103,-7,19345,6,19350,46
2016-12-22 12:39:00,12:39:01,12:39:58,31944,32010,19340.0,60,19345.0,5,19345.0,19350.0,19345.0,19345.0,43,3,19340,62,19345,34
2016-12-22 12:40:00,12:40:05,12:40:59,32014,32137,19340.0,63,19345.0,40,19340.0,19345.0,19335.0,19340.0,93,-5,19335,30,19340,61
2016-12-22 12:41:00,12:41:09,12:41:49,32143,32195,19335.0,37,19340.0,61,19340.0,19340.0,19340.0,19340.0,26,26,19335,43,19340,41
2016-12-22 12:42:00,12:42:00,12:42:45,32200,32312,19335.0,42,19340.0,42,19340.0,19340.0,19335.0,19335.0,130,-6,19335,15,19340,66
2016-12-22 12:43:00,12:43:05,12:43:57,32321,32380,19335.0,15,19340.0,64,19335.0,19335.0,19335.0,19335.0,42,-18,19335,16,19340,69
2016-12-22 12:44:00,12:44:13,12:44:30,32393,32403,19335.0,25,19340.0,63,19335.0,19335.0,19335.0,19335.0,3,-3,19335,22,19340,72
2016-12-22 12:45:00,12:45:07,12:45:49,32416,32450,19335.0,24,19340.0,70,19340.0,19340.0,19335.0,19335.0,27,-25,19330,56,19335,28
2016-12-22 12:46:00,12:46:00,12:46:00,0,0,0.0,0,0.0,0,19335.0,19335.0,19335.0,19335.0,0,0,0,0,0,0
2016-12-22 12:47:00,12:47:03,12:47:04,32477,32479,19330.0,56,19335.0,44,19330.0,19335.0,19330.0,19335.0,2,0,19330,53,19335,41
2016-12-22 12:48:00,12:48:23,12:48:34,32501,32513,19330.0,58,19335.0,49,19335.0,19335.0,19335.0,19335.0,3,3,19330,55,19335,36
2016-12-22 12:49:00,12:49:01,12:49:23,32528,32554,19330.0,55,19335.0,35,19335.0,19335.0,19330.0,19330.0,11,-9,19330,52,19335,44
2016-12-22 12:50:00,12:50:00,12:50:53,32567,32614,19330.0,55,19335.0,41,19330.0,19335.0,19330.0,19335.0,54,-10,19335,11,19340,64
2016-12-22 12:51:00,12:51:08,12:51:08,32628,32628,19335.0,26,19340.0,62,19340.0,19340.0,19340.0,19340.0,1,1,19335,25,19340,55
2016-12-22 12:52:00,12:52:03,12:52:03,32638,32638,19335.0,31,19340.0,56,19340.0,19340.0,19340.0,19340.0,1,1,19335,30,19340,61
2016-12-22 12:53:00,12:53:01,12:53:01,32654,32654,19335.0,31,19340.0,61,19340.0,19340.0,19340.0,19340.0,1,1,19335,30,19340,60
2016-12-22 12:54:00,12:54:00,12:54:56,32666,32780,19335.0,38,19340.0,62,19335.0,19340.0,19335.0,19340.0,76,-10,19335,51,19340,22
2016-12-22 12:55:00,12:55:02,12:55:57,32786,32865,19335.0,51,19340.0,11,19340.0,19340.0,19340.0,19340.0,59,-35,19340,5,19345,70
2016-12-22 12:56:00,12:56:00,12:56:00,0,0,0.0,0,0.0,0,19340.0,19340.0,19340.0,19340.0,0,0,0,0,0,0
2016-12-22 12:57:00,12:57:04,12:57:22,32890,32930,19340.0,55,19345.0,37,19345.0,19345.0,19345.0,19345.0,28,28,19345,13,19350,48
2016-12-22 12:58:00,12:58:51,12:58:51,32980,32980,19345.0,25,19350.0,47,19345.0,19345.0,19345.0,19345.0,1,-1,19345,21,19350,46
2016-12-22 12:59:00,12:59:02,12:59:19,32984,33007,19345.0,19,19350.0,47,19350.0,19350.0,19345.0,19345.0,21,-19,19340,29,19345,33
2016-12-22 13:00:00,13:00:05,13:00:59,33040,33127,19340.0,35,19345.0,32,19345.0,19350.0,19345.0,19350.0,82,-2,19350,17,19355,44
2016-12-22 13:01:00,13:01:00,13:01:22,33132,33188,19350.0,10,19355.0,47,19350.0,19350.0,19350.0,19350.0,50,-1,19350,56,19355,43
2016-12-22 13:02:00,13:02:06,13:02:06,33216,33216,19350.0,55,19355.0,52,19355.0,19355.0,19355.0,19355.0,1,1,19350,53,19355,50
2016-12-22 13:03:00,13:03:05,13:03:44,33254,33360,19350.0,60,19355.0,42,19355.0,19355.0,19350.0,19350.0,107,-28,19350,15,19355,55
2016-12-22 13:04:00,13:04:01,13:04:21,33369,33441,19350.0,19,19355.0,55,19350.0,19350.0,19345.0,19345.0,70,-2,19345,4,19350,63
2016-12-22 13:05:00,13:05:00,13:05:00,0,0,0.0,0,0.0,0,19345.0,19345.0,19345.0,19345.0,0,0,0,0,0,0
2016-12-22 13:06:00,13:06:04,13:06:57,33483,33609,19345.0,37,19350.0,59,19350.0,19350.0,19335.0,19335.0,105,-73,19330,51,19335,8
2016-12-22 13:07:00,13:07:00,13:07:00,0,0,0.0,0,0.0,0,19335.0,19335.0,19335.0,19335.0,0,0,0,0,0,0
2016-12-22 13:08:00,13:08:01,13:08:54,33651,33839,19330.0,42,19335.0,83,19330.0,19330.0,19325.0,19325.0,196,-64,19320,75,19325,5
2016-12-22 13:09:00,13:09:00,13:09:53,33852,33978,19325.0,2,19330.0,63,19320.0,19325.0,19320.0,19325.0,106,-2,19320,61,19325,9
2016-12-22 13:10:00,13:10:00,13:10:37,33985,34013,19320.0,62,19325.0,3,19325.0,19330.0,19320.0,19320.0,9,1,19320,60,19325,28
2016-12-22 13:11:00,13:11:06,13:11:53,34035,34149,19320.0,70,19325.0,16,19320.0,19330.0,19320.0,19330.0,91,-15,19330,8,19335,68
2016-12-22 13:12:00,13:12:00,13:12:00,0,0,0.0,0,0.0,0,19330.0,19330.0,19330.0,19330.0,0,0,0,0,0,0
2016-12-22 13:13:00,13:13:02,13:13:44,34173,34291,19330.0,27,19335.0,57,19330.0,19330.0,19320.0,19325.0,86,-10,19325,9,19330,58
2016-12-22 13:14:00,13:14:16,13:14:43,34316,34392,19325.0,34,19330.0,49,19325.0,19325.0,19320.0,19320.0,67,-55,19320,31,19325,34
2016-12-22 13:15:00,13:15:22,13:15:37,34408,34414,19320.0,58,19325.0,35,19325.0,19325.0,19320.0,19320.0,2,0,19320,57,19325,34
2016-12-22 13:16:00,13:16:08,13:16:58,34428,34513,19320.0,57,19325.0,39,19325.0,19325.0,19320.0,19320.0,50,-24,19320,2,19325,73
2016-12-22 13:17:00,13:17:00,13:17:53,34519,34610,19320.0,4,19325.0,72,19320.0,19320.0,19315.0,19315.0,56,-49,19310,52,19315,21
2016-12-22 13:18:00,13:18:14,13:18:59,34628,34707,19310.0,55,19315.0,18,19310.0,19315.0,19310.0,19310.0,45,13,19310,52,19320,69
2016-12-22 13:19:00,13:19:03,13:19:58,34710,34822,19310.0,53,19315.0,16,19315.0,19315.0,19310.0,19315.0,63,13,19310,55,19315,5
2016-12-22 13:20:00,13:20:10,13:20:46,34841,34870,19310.0,58,19315.0,13,19310.0,19310.0,19310.0,19310.0,7,-7,19310,58,19315,20
2016-12-22 13:21:00,13:21:01,13:21:54,34881,34962,19310.0,61,19315.0,26,19310.0,19320.0,19310.0,19320.0,26,-4,19315,43,19320,53
2016-12-22 13:22:00,13:22:02,13:22:59,34969,35046,19315.0,43,19320.0,55,19315.0,19320.0,19315.0,19315.0,33,9,19315,59,19320,27
2016-12-22 13:23:00,13:23:03,13:23:56,35052,35114,19315.0,58,19320.0,30,19315.0,19320.0,19315.0,19315.0,18,-6,19315,54,19320,32
2016-12-22 13:24:00,13:24:03,13:24:51,35121,35310,19315.0,54,19320.0,37,19320.0,19330.0,19315.0,19330.0,232,58,19330,30,19335,36
2016-12-22 13:25:00,13:25:02,13:25:50,35318,35455,19330.0,22,19335.0,40,19330.0,19335.0,19330.0,19330.0,93,-15,19330,71,19335,14
2016-12-22 13:26:00,13:26:09,13:26:58,35465,35542,19330.0,72,19335.0,18,19330.0,19335.0,19330.0,19335.0,42,-16,19330,114,19335,45
2016-12-22 13:27:00,13:27:01,13:27:58,35545,35665,19330.0,115,19335.0,46,19330.0,19335.0,19325.0,19330.0,162,-2,19330,57,19335,25
2016-12-22 13:28:00,13:28:22,13:28:45,35692,35747,19330.0,51,19335.0,60,19330.0,19330.0,19325.0,19330.0,53,-39,19330,4,19335,74
2016-12-22 13:29:00,13:29:03,13:29:59,35762,35836,19330.0,40,19335.0,59,19330.0,19330.0,19330.0,19330.0,54,-54,19325,71,19335,75
2016-12-22 13:30:00,13:30:01,13:30:59,35845,35930,19325.0,73,19330.0,5,19330.0,19335.0,19325.0,19335.0,55,25,19330,69,19335,26
2016-12-22 13:31:00,13:31:09,13:31:58,35942,36047,19330.0,64,19335.0,40,19330.0,19335.0,19330.0,19330.0,101,-77,19330,12,19335,79
2016-12-22 13:32:00,13:32:07,13:32:57,36059,36119,19330.0,18,19335.0,80,19330.0,19330.0,19330.0,19330.0,41,-17,19330,28,19335,75
2016-12-22 13:33:00,13:33:06,13:33:58,36129,36156,19330.0,35,19335.0,51,19330.0,19335.0,19330.0,19335.0,10,-4,19330,31,19335,48
2016-12-22 13:34:00,13:34:07,13:34:50,36163,36245,19330.0,36,19335.0,47,19330.0,19335.0,19325.0,19325.0,67,-63,19320,45,19325,36
2016-12-22 13:35:00,13:35:03,13:35:47,36259,36331,19320.0,41,19325.0,44,19320.0,19325.0,19320.0,19325.0,46,28,19325,58,19330,21
2016-12-22 13:36:00,13:36:04,13:36:56,36346,36498,19325.0,45,19330.0,32,19330.0,19335.0,19325.0,19330.0,156,-36,19330,49,19335,18
2016-12-22 13:37:00,13:37:00,13:37:59,36506,36599,19330.0,62,19335.0,13,19335.0,19340.0,19330.0,19330.0,57,-15,19330,36,19335,60
2016-12-22 13:38:00,13:38:03,13:38:59,36604,36671,19330.0,41,19335.0,60,19330.0,19335.0,19330.0,19330.0,14,-8,19330,27,19335,43
2016-12-22 13:39:00,13:39:04,13:39:55,36678,36771,19330.0,30,19335.0,43,19335.0,19335.0,19330.0,19335.0,39,23,19335,31,19340,49
2016-12-22 13:40:00,13:40:00,13:40:59,36778,36999,19335.0,35,19340.0,50,19335.0,19345.0,19330.0,19345.0,267,81,19340,59,19345,18
2016-12-22 13:41:00,13:41:00,13:41:57,37001,37132,19340.0,58,19345.0,18,19345.0,19345.0,19340.0,19345.0,93,-35,19340,28,19345,53
2016-12-22 13:42:00,13:42:07,13:42:51,37139,37219,19340.0,32,19345.0,54,19340.0,19350.0,19340.0,19340.0,52,-10,19340,66,19345,20
2016-12-22 13:43:00,13:43:03,13:43:56,37236,37290,19340.0,49,19345.0,34,19340.0,19345.0,19340.0,19340.0,17,1,19340,69,19345,33
2016-12-22 13:44:00,13:44:01,13:44:59,37296,37426,19340.0,69,19345.0,32,19345.0,19350.0,19340.0,19345.0,82,48,19345,20,19350,64
2016-12-22 13:45:00,13:45:04,13:45:55,37435,37513,19345.0,20,19350.0,64,19345.0,19350.0,19345.0,19345.0,49,-43,19345,20,19350,66
2016-12-22 13:46:00,13:46:09,13:46:55,37523,37660,19345.0,24,19350.0,67,19345.0,19355.0,19345.0,19350.0,109,58,19350,18,19355,122
2016-12-22 13:47:00,13:47:01,13:47:51,37668,37743,19350.0,26,19355.0,121,19350.0,19355.0,19350.0,19350.0,82,40,19350,89,19355,48
2016-12-22 13:48:00,13:48:09,13:48:47,37760,37796,19350.0,94,19355.0,44,19355.0,19355.0,19350.0,19350.0,20,8,19350,88,19355,34
2016-12-22 13:49:00,13:49:00,13:49:58,37813,37930,19350.0,82,19355.0,93,19350.0,19355.0,19350.0,19350.0,122,-58,19350,23,19355,74
2016-12-22 13:50:00,13:50:02,13:50:58,37937,38023,19350.0,41,19355.0,66,19350.0,19355.0,19350.0,19350.0,44,-20,19350,42,19355,65
2016-12-22 13:51:00,13:51:07,13:51:59,38031,38170,19350.0,42,19355.0,75,19355.0,19355.0,19350.0,19350.0,117,-19,19350,26,19355,63
2016-12-22 13:52:00,13:52:09,13:52:34,38177,38213,19350.0,32,19355.0,62,19350.0,19355.0,19350.0,19350.0,17,11,19350,40,19355,31
2016-12-22 13:53:00,13:53:00,13:53:40,38243,38283,19350.0,48,19355.0,27,19350.0,19355.0,19350.0,19350.0,10,-8,19350,47,19355,39
2016-12-22 13:54:00,13:54:05,13:54:31,38301,38324,19350.0,47,19355.0,38,19355.0,19355.0,19350.0,19350.0,12,-2,19350,42,19355,41
2016-12-22 13:55:00,13:55:01,13:55:47,38337,38555,19350.0,61,19355.0,34,19355.0,19365.0,19350.0,19360.0,203,149,19355,73,19360,29
2016-12-22 13:56:00,13:56:02,13:56:56,38582,38773,19355.0,101,19360.0,15,19355.0,19365.0,19355.0,19365.0,219,111,19360,94,19365,7
2016-12-22 13:57:00,13:57:01,13:57:54,38783,38902,19360.0,95,19365.0,12,19365.0,19370.0,19365.0,19365.0,91,-65,19365,20,19370,69
2016-12-22 13:58:00,13:58:04,13:58:58,38916,39245,19365.0,36,19370.0,101,19365.0,19365.0,19355.0,19365.0,428,-106,19360,41,19365,90
2016-12-22 13:59:00,13:59:03,13:59:59,39257,39885,19360.0,49,19365.0,91,19360.0,19380.0,19360.0,19380.0,1149,469,19375,189,19380,67
2016-12-22 14:00:00,14:00:00,14:00:59,39890,40494,19375.0,187,19380.0,69,19380.0,19395.0,19375.0,19395.0,984,337,19390,83,19395,88
2016-12-22 14:01:00,14:01:03,14:01:58,40502,40653,19390.0,110,19395.0,118,19390.0,19390.0,19385.0,19385.0,208,-116,19385,27,19390,110
2016-12-22 14:02:00,14:02:02,14:02:45,40661,40756,19385.0,43,19390.0,107,19385.0,19390.0,19385.0,19385.0,135,-89,19380,109,19385,11
2016-12-22 14:03:00,14:03:00,14:03:58,40781,40913,19380.0,72,19385.0,46,19385.0,19385.0,19380.0,19385.0,146,44,19380,89,19385,61
2016-12-22 14:04:00,14:04:00,14:04:58,40915,41049,19380.0,84,19385.0,61,19385.0,19390.0,19385.0,19385.0,152,6,19380,72,19385,37
2016-12-22 14:05:00,14:05:03,14:05:59,41060,41161,19380.0,68,19385.0,49,19385.0,19385.0,19380.0,19380.0,96,-92,19380,38,19385,69
2016-12-22 14:06:00,14:06:16,14:06:59,41167,41284,19380.0,40,19385.0,69,19380.0,19380.0,19375.0,19380.0,199,-55,19380,10,19385,79
2016-12-22 14:07:00,14:07:20,14:07:58,41297,41336,19380.0,24,19385.0,71,19385.0,19385.0,19380.0,19380.0,19,-15,19380,49,19385,72
2016-12-22 14:08:00,14:08:00,14:08:58,41342,41699,19380.0,42,19385.0,76,19385.0,19400.0,19380.0,19395.0,748,-84,19390,114,19395,5
2016-12-22 14:09:00,14:09:00,14:09:59,41703,41869,19390.0,114,19395.0,9,19395.0,19400.0,19395.0,19395.0,142,-68,19395,4,19400,53
