,ST,ET,sidx,eidx,bB,bBS,bA,bAS,O,H,L,C,V,OF,eB,eBS,eA,eAS
2017-02-03 08:00:00,08:00:00,08:00:56,3206,3866,19015.0,105,19020.0,16,19020.0,19025.0,18995.0,19010.0,882,-38,19010,3,19015,35
2017-02-03 08:01:00,08:01:02,08:01:47,3881,4304,19010.0,44,19015.0,32,19015.0,19015.0,19000.0,19005.0,459,-134,19005,12,19010,38
2017-02-03 08:02:00,08:02:00,08:02:55,4318,4505,19005.0,41,19010.0,31,19005.0,19015.0,19005.0,19010.0,194,56,19010,28,19015,19
2017-02-03 08:03:00,08:03:10,08:03:59,4528,4662,19010.0,36,19015.0,27,19010.0,19020.0,19010.0,19020.0,98,20,19015,21,19020,47
2017-02-03 08:04:00,08:04:03,08:04:56,4669,5203,19015.0,27,19020.0,46,19020.0,19020.0,18990.0,18995.0,816,-462,18990,27,18995,62
2017-02-03 08:05:00,08:05:01,08:05:58,5211,5436,18990.0,39,18995.0,56,18995.0,19000.0,18995.0,18995.0,246,104,18990,34,18995,3
2017-02-03 08:06:00,08:06:24,08:06:51,5468,5517,18990.0,48,18995.0,63,18990.0,18995.0,18990.0,18995.0,37,7,18990,46,18995,37
2017-02-03 08:07:00,08:07:00,08:07:56,5531,5764,18990.0,43,18995.0,39,18995.0,19000.0,18995.0,18995.0,260,-58,18990,97,18995,67
2017-02-03 08:08:00,08:08:00,08:08:51,5769,5828,18990.0,99,18995.0,68,18995.0,18995.0,18990.0,18995.0,72,4,18990,83,18995,49
2017-02-03 08:09:00,08:09:01,08:09:48,5839,6033,18990.0,83,18995.0,47,18995.0,18995.0,18980.0,18985.0,286,-110,18980,57,18985,29
2017-02-03 08:10:00,08:10:02,08:10:51,6046,6240,18980.0,62,18985.0,23,18980.0,18990.0,18975.0,18975.0,217,-83,18975,31,18980,40
2017-02-03 08:11:00,08:11:03,08:11:58,6257,7062,18975.0,34,18980.0,49,18980.0,19015.0,18980.0,19005.0,1165,646,19005,33,19010,26
2017-02-03 08:12:00,08:12:04,08:12:59,7076,7255,19005.0,28,19010.0,41,19010.0,19010.0,19005.0,19010.0,124,34,19005,61,19010,25
2017-02-03 08:13:00,08:13:01,08:13:55,7258,7487,19005.0,61,19010.0,25,19010.0,19015.0,19010.0,19010.0,212,34,19005,37,19010,20
2017-02-03 08:14:00,08:14:01,08:14:56,7495,7706,19005.0,37,19010.0,20,19010.0,19020.0,19010.0,19015.0,152,24,19010,47,19015,13
2017-02-03 08:15:00,08:15:11,08:15:52,7728,7847,19010.0,85,19015.0,11,19015.0,19025.0,19010.0,19025.0,73,45,19020,35,19025,12
2017-02-03 08:16:00,08:16:02,08:16:52,7859,8051,19020.0,32,19025.0,27,19025.0,19030.0,19025.0,19030.0,142,70,19025,31,19030,31
2017-02-03 08:17:00,08:17:01,08:17:57,8060,8267,19025.0,35,19030.0,13,19030.0,19035.0,19025.0,19030.0,264,-2,19025,13,19030,36
2017-02-03 08:18:00,08:18:00,08:18:53,8270,8559,19025.0,21,19030.0,37,19025.0,19035.0,19025.0,19035.0,334,-22,19030,27,19035,21
2017-02-03 08:19:00,08:19:03,08:19:59,8572,8982,19030.0,28,19035.0,45,19035.0,19040.0,19030.0,19040.0,373,-8,19040,29,19045,41
2017-02-03 08:20:00,08:20:02,08:20:58,8987,9193,19040.0,32,19045.0,36,19040.0,19040.0,19035.0,19035.0,244,-100,19035,19,19035,21
2017-02-03 08:21:00,08:21:03,08:21:54,9196,9362,19030.0,34,19035.0,23,19035.0,19040.0,19035.0,19040.0,179,78,19035,39,19040,22
2017-02-03 08:22:00,08:22:06,08:22:36,9378,9544,19035.0,46,19040.0,23,19040.0,19050.0,19040.0,19045.0,195,49,19040,33,19045,21
2017-02-03 08:23:00,08:23:15,08:23:48,9570,9662,19040.0,42,19045.0,10,19045.0,19045.0,19045.0,19045.0,82,50,19045,10,19050,42
2017-02-03 08:24:00,08:24:03,08:24:57,9676,9838,19045.0,30,19050.0,27,19045.0,19050.0,19045.0,19050.0,142,91,19045,59,19050,4
2017-02-03 08:25:00,08:25:03,08:25:58,9849,10032,19045.0,57,19050.0,11,19045.0,19050.0,19030.0,19030.0,149,-125,19030,42,19035,15
2017-02-03 08:26:00,08:26:04,08:26:58,10039,10127,19030.0,42,19035.0,12,19035.0,19035.0,19035.0,19035.0,57,19,19030,31,19035,8
2017-02-03 08:27:00,08:27:04,08:27:47,10139,10230,19030.0,31,19035.0,27,19035.0,19035.0,19030.0,19035.0,50,40,19030,31,19035,21
2017-02-03 08:28:00,08:28:04,08:28:42,10249,10316,19030.0,29,19035.0,26,19035.0,19035.0,19030.0,19030.0,38,-2,19025,42,19030,11
2017-02-03 08:29:00,08:29:15,08:29:57,10340,10527,19025.0,43,19030.0,19,19025.0,19035.0,19025.0,19030.0,180,-1,19025,38,19030,5
2017-02-03 08:30:00,08:30:03,08:30:59,10535,10722,19025.0,39,19030.0,12,19030.0,19030.0,19030.0,19030.0,165,56,19030,10,19035,23
2017-02-03 08:31:00,08:31:07,08:31:58,10736,10854,19030.0,17,19035.0,26,19030.0,19035.0,19030.0,19030.0,87,-67,19030,3,19035,35
2017-02-03 08:32:00,08:32:17,08:32:52,10871,10959,19030.0,19,19035.0,34,19030.0,19030.0,19030.0,19030.0,67,-35,19025,57,19030,5
2017-02-03 08:33:00,08:33:12,08:33:55,10984,11052,19025.0,100,19030.0,3,19030.0,19035.0,19030.0,19030.0,45,39,19025,47,19030,28
2017-02-03 08:34:00,08:34:07,08:34:46,11065,11141,19025.0,45,19030.0,20,19030.0,19035.0,19030.0,19030.0,55,36,19025,59,19030,15
2017-02-03 08:35:00,08:35:05,08:35:30,11152,11189,19025.0,37,19030.0,34,19030.0,19030.0,19025.0,19025.0,28,-14,19020,35,19025,26
2017-02-03 08:36:00,08:36:03,08:36:54,11216,11325,19020.0,47,19025.0,22,19025.0,19025.0,19020.0,19025.0,82,32,19020,48,19025,18
2017-02-03 08:37:00,08:37:04,08:37:54,11335,11527,19020.0,46,19025.0,18,19020.0,19020.0,19010.0,19010.0,153,-59,19010,23,19015,24
2017-02-03 08:38:00,08:38:01,08:38:55,11539,11624,19010.0,26,19015.0,17,19015.0,19015.0,19010.0,19015.0,50,8,19010,31,19015,13
2017-02-03 08:39:00,08:39:14,08:39:58,11645,11811,19010.0,36,19015.0,17,19015.0,19015.0,19010.0,19010.0,137,-24,19005,38,19015,41
2017-02-03 08:40:00,08:40:00,08:40:59,11816,11893,19010.0,14,19015.0,37,19015.0,19015.0,19010.0,19010.0,41,-13,19010,12,19015,36
2017-02-03 08:41:00,08:41:00,08:41:35,11896,11935,19010.0,12,19015.0,36,19010.0,19015.0,19010.0,19015.0,17,-9,19010,13,19015,40
2017-02-03 08:42:00,08:42:00,08:42:52,11954,12029,19010.0,25,19015.0,44,19015.0,19015.0,19015.0,19015.0,39,39,19010,42,19015,13
2017-02-03 08:43:00,08:43:00,08:43:43,12038,12092,19010.0,43,19015.0,16,19015.0,19015.0,19015.0,19015.0,40,-2,19010,30,19015,33
2017-02-03 08:44:00,08:44:02,08:44:59,12109,12193,19010.0,39,19015.0,25,19015.0,19020.0,19010.0,19020.0,53,3,19015,22,19020,47
2017-02-03 08:45:00,08:45:03,08:45:57,12200,12335,19015.0,22,19020.0,49,19015.0,19025.0,19015.0,19025.0,117,37,19020,17,19025,41
2017-02-03 08:46:00,08:46:00,08:46:47,12340,12426,19020.0,14,19025.0,41,19020.0,19020.0,19010.0,19010.0,41,-13,19010,31,19015,28
2017-02-03 08:47:00,08:47:00,08:47:46,12441,12536,19010.0,23,19015.0,37,19010.0,19015.0,19010.0,19015.0,42,-2,19010,30,19015,30
2017-02-03 08:48:00,08:48:01,08:48:56,12558,12775,19010.0,29,19015.0,41,19010.0,19015.0,19005.0,19010.0,274,170,19005,35,19010,28
2017-02-03 08:49:00,08:49:09,08:49:54,12793,12958,19005.0,36,19010.0,42,19005.0,19005.0,19000.0,19005.0,126,-58,19000,27,19005,41
2017-02-03 08:50:00,08:50:02,08:50:52,12974,13052,19000.0,44,19005.0,17,19005.0,19005.0,19005.0,19005.0,57,31,19000,31,19005,24
2017-02-03 08:51:00,08:51:04,08:51:53,13066,13208,19000.0,36,19005.0,17,19005.0,19010.0,19005.0,19010.0,102,69,19005,36,19010,11
2017-02-03 08:52:00,08:52:04,08:52:41,13223,13294,19005.0,35,19010.0,23,19010.0,19010.0,19005.0,19005.0,51,-29,19000,36,19010,48
2017-02-03 08:53:00,08:53:12,08:53:53,13317,13489,19000.0,20,19005.0,31,19000.0,19000.0,18990.0,19000.0,155,38,18995,41,19005,33
2017-02-03 08:54:00,08:54:03,08:54:26,13509,13593,19000.0,34,19005.0,26,19000.0,19005.0,19000.0,19005.0,64,6,19005,12,19010,40
2017-02-03 08:55:00,08:55:01,08:55:57,13663,13784,19005.0,25,19010.0,33,19005.0,19010.0,19000.0,19010.0,68,-16,19005,26,19010,41
2017-02-03 08:56:00,08:56:01,08:56:58,13789,13995,19005.0,36,19010.0,41,19010.0,19010.0,19000.0,19000.0,218,51,19000,6,19005,41
2017-02-03 08:57:00,08:57:00,08:57:30,13999,14095,18995.0,44,19005.0,41,19000.0,19005.0,19000.0,19005.0,84,69,19005,20,19010,39
2017-02-03 08:58:00,08:58:12,08:58:37,14141,14183,19005.0,7,19010.0,40,19005.0,19010.0,19005.0,19010.0,13,-1,19005,34,19010,41
2017-02-03 08:59:00,08:59:22,08:59:55,14214,14319,19005.0,27,19010.0,44,19005.0,19005.0,18995.0,18995.0,98,-76,18995,33,19000,30
2017-02-03 09:00:00,09:00:01,09:00:55,14334,14624,18995.0,22,19000.0,41,18995.0,19015.0,18995.0,19015.0,307,5,19010,20,19015,33
2017-02-03 09:01:00,09:01:19,09:01:46,14647,14734,19010.0,28,19015.0,29,19010.0,19015.0,19010.0,19015.0,74,20,19010,26,19015,31
2017-02-03 09:02:00,09:02:05,09:02:29,14751,14825,19010.0,24,19015.0,32,19015.0,19015.0,19015.0,19015.0,67,53,19015,19,19020,34
2017-02-03 09:03:00,09:03:13,09:03:26,14875,14937,19015.0,30,19020.0,34,19015.0,19020.0,19015.0,19015.0,50,-3,19010,36,19015,3
2017-02-03 09:04:00,09:04:02,09:04:57,14968,15022,19010.0,36,19015.0,23,19015.0,19015.0,19015.0,19015.0,24,24,19015,28,19020,30
2017-02-03 09:05:00,09:05:21,09:05:23,15051,15108,19015.0,26,19020.0,40,19020.0,19020.0,19020.0,19020.0,80,78,19015,27,19020,15
2017-02-03 09:06:00,09:06:21,09:06:39,15160,15217,19015.0,43,19020.0,12,19020.0,19020.0,19020.0,19020.0,36,8,19015,36,19020,2
2017-02-03 09:07:00,09:07:09,09:07:58,15247,15365,19015.0,13,19020.0,33,19015.0,19020.0,19015.0,19015.0,77,-32,19015,7,19015,6
2017-02-03 09:08:00,09:08:03,09:08:43,15373,15413,19015.0,8,19020.0,37,19015.0,19015.0,19015.0,19015.0,15,-7,19010,50,19015,2
2017-02-03 09:09:00,09:09:21,09:09:40,15432,15461,19010.0,49,19015.0,21,19015.0,19015.0,19015.0,19015.0,14,13,19015,14,19020,39
2017-02-03 09:10:00,09:10:02,09:10:56,15471,16019,19015.0,16,19020.0,48,19015.0,19030.0,19010.0,19030.0,550,-117,19025,18,19030,48
2017-02-03 09:11:00,09:11:00,09:11:54,16027,16506,19025.0,6,19030.0,48,19025.0,19025.0,18980.0,18980.0,550,-200,18980,31,18985,34
2017-02-03 09:12:00,09:12:00,09:12:58,16524,17130,18980.0,38,18985.0,35,18980.0,18985.0,18960.0,18980.0,687,-108,18975,40,18980,15
2017-02-03 09:13:00,09:13:02,09:13:59,17139,17479,18975.0,35,18980.0,46,18975.0,18975.0,18965.0,18970.0,278,-40,18970,6,18975,48
2017-02-03 09:14:00,09:14:02,09:14:49,17489,17713,18970.0,30,18975.0,40,18970.0,18975.0,18970.0,18975.0,241,-31,18975,11,18980,49
2017-02-03 09:15:00,09:15:01,09:15:56,17726,18122,18975.0,29,18980.0,47,18975.0,18975.0,18950.0,18950.0,367,-125,18950,37,18955,22
2017-02-03 09:16:00,09:16:00,09:16:59,18133,18630,18950.0,37,18955.0,18,18955.0,18960.0,18940.0,18940.0,463,-19,18935,49,18940,4
2017-02-03 09:17:00,09:17:05,09:17:59,18648,18959,18935.0,49,18940.0,19,18935.0,18940.0,18925.0,18940.0,314,26,18940,36,18945,44
2017-02-03 09:18:00,09:18:01,09:18:55,18963,19182,18940.0,34,18945.0,44,18940.0,18945.0,18935.0,18940.0,196,-123,18935,23,18940,21
2017-02-03 09:19:00,09:19:05,09:19:56,19191,19455,18935.0,41,18940.0,23,18940.0,18940.0,18925.0,18925.0,272,23,18925,33,18930,26
2017-02-03 09:20:00,09:20:05,09:20:56,19477,19672,18925.0,45,18930.0,18,18925.0,18940.0,18925.0,18935.0,159,12,18935,21,18940,33
2017-02-03 09:21:00,09:21:00,09:21:58,19677,19991,18935.0,26,18940.0,33,18940.0,18950.0,18940.0,18945.0,305,134,18945,47,18950,38
2017-02-03 09:22:00,09:22:03,09:22:54,20001,20182,18945.0,48,18950.0,37,18950.0,18950.0,18945.0,18950.0,155,115,18950,17,18955,44
2017-02-03 09:23:00,09:23:00,09:23:57,20192,20499,18950.0,32,18955.0,37,18950.0,18965.0,18950.0,18960.0,333,76,18955,42,18965,47
2017-02-03 09:24:00,09:24:00,09:24:56,20508,20752,18955.0,44,18960.0,11,18955.0,18960.0,18950.0,18960.0,226,30,18955,36,18960,24
2017-02-03 09:25:00,09:25:05,09:25:54,20770,20964,18955.0,18,18960.0,51,18955.0,18955.0,18950.0,18950.0,193,76,18945,51,18955,40
2017-02-03 09:26:00,09:26:02,09:26:57,20993,21181,18950.0,39,18955.0,9,18955.0,18960.0,18950.0,18950.0,131,-70,18945,58,18955,37
2017-02-03 09:27:00,09:27:00,09:27:59,21184,21409,18950.0,6,18955.0,35,18950.0,18955.0,18945.0,18955.0,170,31,18950,48,18955,20
2017-02-03 09:28:00,09:28:03,09:28:03,21414,21417,18950.0,48,18955.0,16,18955.0,18955.0,18955.0,18955.0,2,2,18950,34,18955,3
2017-02-03 09:29:00,09:29:19,09:29:28,21460,21543,18950.0,34,18955.0,22,18950.0,18955.0,18950.0,18955.0,74,-6,18950,37,18955,2
2017-02-03 09:30:00,09:30:01,09:30:58,21585,22179,18950.0,37,18955.0,22,18950.0,18950.0,18905.0,18920.0,774,-294,18920,27,18925,32
2017-02-03 09:31:00,09:31:00,09:31:59,22183,22423,18920.0,26,18925.0,32,18920.0,18930.0,18920.0,18925.0,168,48,18920,39,18925,24
2017-02-03 09:32:00,09:32:00,09:32:41,22427,22549,18920.0,40,18925.0,24,18925.0,18925.0,18920.0,18925.0,77,32,18920,32,18925,8
2017-02-03 09:33:00,09:33:04,09:33:59,22569,22931,18920.0,28,18925.0,25,18920.0,18950.0,18920.0,18950.0,393,212,18945,34,18950,2
2017-02-03 09:34:00,09:34:05,09:34:58,22948,23126,18945.0,35,18950.0,20,18945.0,18950.0,18945.0,18945.0,118,-4,18940,41,18950,35
2017-02-03 09:35:00,09:35:02,09:35:59,23135,23262,18940.0,32,18945.0,25,18940.0,18945.0,18940.0,18945.0,78,-16,18945,4,18950,61
2017-02-03 09:36:00,09:36:41,09:36:59,23301,23316,18945.0,56,18950.0,52,18945.0,18950.0,18945.0,18950.0,4,0,18945,33,18950,1
2017-02-03 09:37:00,09:37:00,09:37:50,23317,23561,18945.0,59,18950.0,53,18950.0,18960.0,18950.0,18960.0,242,-2,18960,14,18965,32
2017-02-03 09:38:00,09:38:05,09:38:58,23581,23798,18960.0,24,18965.0,26,18960.0,18970.0,18960.0,18965.0,158,28,18965,38,18970,32
2017-02-03 09:39:00,09:39:19,09:39:54,23809,23893,18965.0,75,18970.0,39,18965.0,18965.0,18960.0,18960.0,104,-72,18960,16,18965,39
2017-02-03 09:40:00,09:40:03,09:40:46,23904,24094,18960.0,11,18965.0,42,18960.0,18960.0,18950.0,18960.0,158,-50,18955,42,18965,29
2017-02-03 09:41:00,09:41:42,09:41:52,24149,24173,18960.0,39,18965.0,28,18965.0,18965.0,18960.0,18960.0,25,-7,18960,18,18965,29
2017-02-03 09:42:00,09:42:00,09:42:54,24186,24280,18960.0,30,18965.0,31,18960.0,18960.0,18950.0,18950.0,66,-40,18945,34,18955,28
2017-02-03 09:43:00,09:43:01,09:43:32,24288,24341,18950.0,20,18955.0,20,18950.0,18950.0,18950.0,18950.0,45,-3,18950,1,18955,18
2017-02-03 09:44:00,09:44:01,09:44:05,24356,24381,18950.0,20,18955.0,15,18950.0,18950.0,18950.0,18950.0,28,-28,18945,21,18950,10
2017-02-03 09:45:00,09:45:06,09:45:47,24429,24500,18945.0,17,18950.0,25,18950.0,18950.0,18950.0,18950.0,46,19,18945,36,18950,6
2017-02-03 09:46:00,09:46:02,09:46:59,24514,24578,18945.0,33,18950.0,4,18950.0,18965.0,18950.0,18965.0,48,29,18960,20,18965,17
2017-02-03 09:47:00,09:47:07,09:47:55,24591,24737,18960.0,19,18965.0,24,18965.0,18975.0,18965.0,18970.0,110,36,18965,55,18970,3
2017-02-03 09:48:00,09:48:13,09:48:48,24748,24926,18965.0,55,18970.0,14,18970.0,18970.0,18965.0,18970.0,155,39,18965,32,18975,35
2017-02-03 09:49:00,09:49:04,09:49:46,24939,25029,18970.0,26,18975.0,24,18975.0,18975.0,18965.0,18965.0,67,-15,18960,41,18965,7
2017-02-03 09:50:00,09:50:16,09:50:59,25056,25165,18965.0,21,18970.0,28,18965.0,18970.0,18965.0,18970.0,63,-7,18965,19,18965,21
2017-02-03 09:51:00,09:51:00,09:51:53,25168,25352,18965.0,18,18970.0,23,18965.0,18965.0,18960.0,18965.0,81,39,18965,27,18970,13
2017-02-03 09:52:00,09:52:08,09:52:43,25363,25462,18965.0,30,18970.0,19,18970.0,18970.0,18970.0,18970.0,50,-20,18965,42,18970,2
2017-02-03 09:53:00,09:53:14,09:53:52,25499,25566,18965.0,32,18970.0,20,18970.0,18970.0,18970.0,18970.0,50,-4,18970,6,18975,42
2017-02-03 09:54:00,09:54:04,09:54:58,25600,25808,18970.0,29,18975.0,21,18975.0,18985.0,18975.0,18985.0,197,115,18985,25,18990,37
2017-02-03 09:55:00,09:55:03,09:55:53,25818,26069,18985.0,25,18990.0,36,18985.0,19005.0,18985.0,18995.0,187,105,18995,16,19000,40
2017-02-03 09:56:00,09:56:05,09:56:59,26091,26281,18995.0,8,19000.0,41,18995.0,18995.0,18990.0,18990.0,162,-22,18985,35,18990,25
2017-02-03 09:57:00,09:57:08,09:57:51,26297,26483,18985.0,23,18990.0,39,18985.0,18985.0,18970.0,18975.0,191,-29,18975,8,18980,35
2017-02-03 09:58:00,09:58:00,09:58:55,26490,26732,18975.0,19,18980.0,35,18975.0,18975.0,18970.0,18970.0,176,-17,18965,92,18970,18
2017-02-03 09:59:00,09:59:14,09:59:57,26757,26920,18965.0,90,18970.0,31,18965.0,18965.0,18955.0,18955.0,173,-121,18950,41,18955,21
2017-02-03 10:00:00,10:00:02,10:00:57,26931,27328,18950.0,31,18955.0,28,18950.0,18950.0,18935.0,18940.0,506,-242,18935,28,18940,21
2017-02-03 10:01:00,10:01:00,10:01:53,27335,27570,18935.0,28,18940.0,29,18935.0,18940.0,18935.0,18935.0,206,-25,18930,32,18935,74
2017-02-03 10:02:00,10:02:15,10:02:59,27592,27744,18930.0,35,18935.0,80,18930.0,18940.0,18925.0,18940.0,198,58,18935,32,18940,36
2017-02-03 10:03:00,10:03:02,10:03:58,27752,27899,18935.0,35,18940.0,39,18940.0,18940.0,18925.0,18925.0,114,-64,18920,34,18925,14
2017-02-03 10:04:00,10:04:04,10:04:56,27914,28134,18920.0,43,18925.0,20,18925.0,18925.0,18920.0,18925.0,199,14,18925,14,18925,8
2017-02-03 10:05:00,10:05:00,10:05:52,28141,28248,18920.0,41,18925.0,12,18925.0,18930.0,18925.0,18930.0,82,28,18925,28,18930,36
2017-02-03 10:06:00,10:06:11,10:06:59,28277,28507,18925.0,24,18930.0,39,18925.0,18925.0,18915.0,18915.0,230,-106,18915,1,18920,37
2017-02-03 10:07:00,10:07:00,10:07:48,28509,28672,18915.0,1,18920.0,36,18915.0,18920.0,18910.0,18920.0,82,-22,18920,16,18925,20
2017-02-03 10:08:00,10:08:05,10:08:55,28691,28839,18920.0,18,18925.0,33,18920.0,18920.0,18915.0,18920.0,119,1,18915,33,18920,23
2017-02-03 10:09:00,10:09:12,10:09:55,28860,28950,18915.0,26,18920.0,32,18920.0,18920.0,18915.0,18915.0,61,7,18915,20,18920,47
2017-02-03 10:10:00,10:10:02,10:10:54,28963,29165,18915.0,16,18920.0,55,18915.0,18915.0,18910.0,18910.0,239,142,18905,47,18910,29
2017-02-03 10:11:00,10:11:07,10:11:48,29186,29327,18905.0,38,18910.0,40,18905.0,18910.0,18905.0,18910.0,96,22,18905,38,18910,28
2017-02-03 10:12:00,10:12:01,10:12:50,29344,29574,18905.0,41,18910.0,28,18905.0,18915.0,18905.0,18910.0,347,-5,18905,49,18910,25
2017-02-03 10:13:00,10:13:00,10:13:51,29581,29672,18905.0,49,18910.0,29,18910.0,18910.0,18905.0,18910.0,77,75,18905,41,18910,24
2017-02-03 10:14:00,10:14:01,10:14:47,29684,29882,18905.0,53,18910.0,24,18910.0,18915.0,18910.0,18915.0,178,-5,18915,25,18920,49
2017-02-03 10:15:00,10:15:00,10:15:59,29905,30231,18915.0,43,18920.0,26,18915.0,18915.0,18910.0,18910.0,302,22,18905,42,18910,10
2017-02-03 10:16:00,10:16:06,10:16:47,30238,30340,18905.0,41,18910.0,22,18910.0,18910.0,18910.0,18910.0,89,39,18905,43,18910,5
2017-02-03 10:17:00,10:17:00,10:17:58,30355,30494,18905.0,44,18910.0,15,18910.0,18925.0,18910.0,18925.0,138,60,18920,32,18925,37
2017-02-03 10:18:00,10:18:07,10:18:49,30503,30735,18920.0,47,18925.0,28,18925.0,18930.0,18915.0,18915.0,220,-46,18915,15,18920,32
2017-02-03 10:19:00,10:19:05,10:19:47,30757,30895,18915.0,37,18920.0,6,18920.0,18920.0,18915.0,18920.0,96,23,18920,4,18925,41
2017-02-03 10:20:00,10:20:00,10:20:34,30916,30975,18920.0,76,18925.0,36,18925.0,18925.0,18920.0,18925.0,41,15,18925,9,18930,37
2017-02-03 10:21:00,10:21:00,10:21:56,31003,31661,18925.0,66,18930.0,42,18930.0,18930.0,18870.0,18885.0,1175,-740,18880,29,18885,15
2017-02-03 10:22:00,10:22:01,10:22:59,31670,32091,18880.0,36,18885.0,16,18885.0,18885.0,18855.0,18860.0,451,-145,18855,22,18860,2
2017-02-03 10:23:00,10:23:01,10:23:59,32095,32420,18855.0,22,18860.0,8,18860.0,18865.0,18855.0,18860.0,302,52,18860,23,18865,21
2017-02-03 10:24:00,10:24:02,10:24:59,32430,32762,18860.0,9,18865.0,26,18860.0,18865.0,18835.0,18835.0,398,-236,18835,81,18840,34
2017-02-03 10:25:00,10:25:00,10:25:59,32765,33132,18835.0,81,18840.0,34,18840.0,18840.0,18820.0,18830.0,413,-85,18825,19,18830,19
2017-02-03 10:26:00,10:26:02,10:26:59,33140,33799,18825.0,21,18830.0,13,18830.0,18835.0,18800.0,18820.0,854,72,18820,10,18825,31
2017-02-03 10:27:00,10:27:01,10:27:48,33804,34047,18820.0,13,18825.0,31,18820.0,18830.0,18810.0,18830.0,237,-5,18825,30,18830,19
2017-02-03 10:28:00,10:28:02,10:28:58,34067,34397,18825.0,36,18830.0,17,18830.0,18830.0,18820.0,18825.0,399,27,18825,35,18830,15
2017-02-03 10:29:00,10:29:01,10:29:58,34403,34566,18825.0,36,18830.0,16,18825.0,18835.0,18825.0,18830.0,149,-7,18830,17,18835,28
2017-02-03 10:30:00,10:30:00,10:30:56,34570,34991,18830.0,18,18835.0,28,18830.0,18845.0,18830.0,18840.0,390,158,18835,36,18840,6
2017-02-03 10:31:00,10:31:08,10:31:54,35009,35142,18835.0,37,18840.0,17,18840.0,18840.0,18830.0,18835.0,114,-5,18835,23,18840,30
2017-02-03 10:32:00,10:32:00,10:32:49,35148,35268,18835.0,25,18840.0,30,18835.0,18835.0,18835.0,18835.0,138,-51,18830,41,18835,5
2017-02-03 10:33:00,10:33:00,10:33:57,35283,35474,18830.0,42,18835.0,6,18835.0,18840.0,18835.0,18835.0,173,82,18835,2,18840,28
2017-02-03 10:34:00,10:34:04,10:34:55,35486,35614,18835.0,12,18840.0,23,18835.0,18840.0,18835.0,18835.0,152,-16,18830,52,18835,5
2017-02-03 10:35:00,10:35:21,10:35:45,35635,35759,18830.0,52,18835.0,10,18835.0,18840.0,18830.0,18830.0,153,-17,18830,8,18835,23
2017-02-03 10:36:00,10:36:20,10:36:58,35784,35823,18830.0,32,18835.0,22,18830.0,18840.0,18830.0,18840.0,29,21,18830,14,18840,34
2017-02-03 10:37:00,10:37:06,10:37:57,35828,35987,18835.0,30,18840.0,39,18835.0,18840.0,18835.0,18840.0,136,72,18840,5,18845,23
2017-02-03 10:38:00,10:38:01,10:38:58,35994,36125,18835.0,42,18840.0,12,18840.0,18840.0,18835.0,18835.0,89,-29,18835,14,18840,28
2017-02-03 10:39:00,10:39:01,10:39:46,36136,36282,18835.0,17,18840.0,6,18840.0,18845.0,18840.0,18840.0,114,-7,18840,8,18845,27
2017-02-03 10:40:00,10:40:09,10:40:56,36307,36457,18840.0,12,18845.0,33,18840.0,18850.0,18840.0,18845.0,178,7,18840,25,18845,6
2017-02-03 10:41:00,10:41:11,10:41:53,36465,36530,18840.0,26,18845.0,13,18845.0,18850.0,18845.0,18845.0,46,-12,18845,20,18850,21
2017-02-03 10:42:00,10:42:06,10:42:30,36542,36559,18845.0,13,18850.0,33,18845.0,18845.0,18840.0,18840.0,6,-6,18840,26,18845,12
2017-02-03 10:43:00,10:43:04,10:43:29,36574,36617,18840.0,29,18845.0,12,18845.0,18845.0,18845.0,18845.0,17,-11,18845,7,18850,37
2017-02-03 10:44:00,10:44:33,10:44:41,36637,36663,18845.0,15,18850.0,35,18845.0,18845.0,18845.0,18845.0,19,-19,18840,32,18845,1
2017-02-03 10:45:00,10:45:00,10:45:02,36673,36689,18840.0,32,18845.0,16,18845.0,18845.0,18845.0,18845.0,16,-2,18840,30,18845,7
2017-02-03 10:46:00,10:46:06,10:46:45,36708,36799,18840.0,30,18845.0,24,18840.0,18840.0,18835.0,18835.0,62,-23,18835,8,18840,34
2017-02-03 10:47:00,10:47:21,10:47:58,36810,36848,18835.0,15,18840.0,33,18840.0,18840.0,18835.0,18840.0,27,19,18835,22,18840,30
2017-02-03 10:48:00,10:48:06,10:48:21,36852,36856,18835.0,26,18840.0,30,18835.0,18840.0,18835.0,18840.0,3,-1,18835,22,18840,29
2017-02-03 10:49:00,10:49:03,10:49:52,36876,36941,18835.0,22,18840.0,31,18840.0,18840.0,18830.0,18830.0,54,-28,18825,25,18830,11
2017-02-03 10:50:00,10:50:02,10:50:58,36951,37177,18825.0,25,18830.0,22,18825.0,18825.0,18820.0,18820.0,217,-96,18815,28,18820,2
2017-02-03 10:51:00,10:51:01,10:51:57,37183,37304,18815.0,32,18820.0,14,18820.0,18825.0,18820.0,18825.0,99,66,18820,31,18825,26
2017-02-03 10:52:00,10:52:08,10:52:58,37312,37387,18820.0,30,18825.0,27,18825.0,18830.0,18825.0,18825.0,105,6,18825,1,18830,41
2017-02-03 10:53:00,10:53:05,10:53:59,37388,37414,18820.0,31,18830.0,39,18825.0,18825.0,18825.0,18825.0,18,-6,18820,30,18830,41
2017-02-03 10:54:00,10:54:05,10:54:49,37418,37470,18825.0,1,18830.0,41,18825.0,18830.0,18825.0,18830.0,65,37,18825,28,18835,40
2017-02-03 10:55:00,10:55:00,10:55:00,0,0,0.0,0,0.0,0,18830.0,18830.0,18830.0,18830.0,0,0,0,0,0,0
2017-02-03 10:56:00,10:56:14,10:56:47,37498,37571,18825.0,22,18830.0,53,18825.0,18825.0,18820.0,18825.0,89,15,18825,9,18830,46
2017-02-03 10:57:00,10:57:03,10:57:24,37584,37649,18825.0,15,18830.0,46,18825.0,18825.0,18825.0,18825.0,86,-18,18825,5,18830,46
2017-02-03 10:58:00,10:58:22,10:58:56,37663,37755,18820.0,64,18825.0,32,18820.0,18820.0,18815.0,18815.0,139,-139,18810,32,18815,12
2017-02-03 10:59:00,10:59:13,10:59:24,37772,37853,18810.0,34,18815.0,23,18810.0,18820.0,18810.0,18820.0,98,-22,18815,21,18820,21
2017-02-03 11:00:00,11:00:01,11:00:27,37876,37924,18815.0,23,18820.0,21,18820.0,18820.0,18810.0,18810.0,32,12,18810,23,18815,13
2017-02-03 11:01:00,11:01:01,11:01:56,37942,38080,18810.0,24,18815.0,16,18815.0,18825.0,18815.0,18825.0,126,42,18820,29,18825,18
2017-02-03 11:02:00,11:02:01,11:02:55,38085,38116,18820.0,27,18825.0,17,18825.0,18830.0,18825.0,18830.0,11,11,18825,28,18830,43
2017-02-03 11:03:00,11:03:29,11:03:29,38129,38131,18825.0,29,18830.0,38,18830.0,18830.0,18830.0,18830.0,2,2,18825,23,18830,38
2017-02-03 11:04:00,11:04:00,11:04:57,38143,38186,18825.0,23,18830.0,40,18830.0,18830.0,18825.0,18825.0,44,-32,18820,34,18825,19
2017-02-03 11:05:00,11:05:17,11:05:46,38204,38252,18820.0,30,18825.0,80,18825.0,18830.0,18825.0,18825.0,86,66,18825,15,18830,33
2017-02-03 11:06:00,11:06:10,11:06:25,38265,38287,18825.0,14,18830.0,39,18825.0,18825.0,18825.0,18825.0,15,-15,18825,8,18830,40
2017-02-03 11:07:00,11:07:32,11:07:41,38316,38349,18825.0,15,18830.0,49,18825.0,18825.0,18825.0,18825.0,33,-33,18820,30,18825,13
2017-02-03 11:08:00,11:08:49,11:08:49,38374,38383,18820.0,26,18825.0,18,18825.0,18825.0,18825.0,18825.0,15,15,18825,15,18830,49
2017-02-03 11:09:00,11:09:49,11:09:49,38410,38410,18825.0,28,18830.0,45,18830.0,18830.0,18830.0,18830.0,1,1,18825,29,18830,42
2017-02-03 11:10:00,11:10:15,11:10:15,38414,38414,18825.0,29,18830.0,43,18825.0,18825.0,18825.0,18825.0,1,-1,18825,31,18830,45
2017-02-03 11:11:00,11:11:24,11:11:50,38430,38466,18825.0,35,18830.0,47,18825.0,18830.0,18825.0,18830.0,60,58,18825,30,18830,12
2017-02-03 11:12:00,11:12:25,11:12:30,38483,38516,18825.0,30,18830.0,31,18825.0,18825.0,18820.0,18820.0,35,-35,18820,20,18825,36
2017-02-03 11:13:00,11:13:20,11:13:58,38532,38546,18820.0,38,18825.0,36,18825.0,18825.0,18825.0,18825.0,9,9,18820,45,18825,28
2017-02-03 11:14:00,11:14:34,11:14:41,38553,38585,18820.0,46,18825.0,25,18825.0,18825.0,18825.0,18825.0,36,35,18825,7,18830,35
2017-02-03 11:15:00,11:15:04,11:15:46,38600,38690,18825.0,24,18830.0,35,18830.0,18835.0,18830.0,18835.0,78,32,18835,15,18840,31
2017-02-03 11:16:00,11:16:50,11:16:54,38715,38749,18835.0,31,18840.0,35,18840.0,18840.0,18835.0,18840.0,37,25,18835,73,18845,41
2017-02-03 11:17:00,11:17:21,11:17:59,38763,38876,18840.0,56,18845.0,28,18845.0,18855.0,18845.0,18855.0,115,61,18850,95,18855,23
2017-02-03 11:18:00,11:18:00,11:18:58,38881,38992,18850.0,100,18855.0,20,18855.0,18855.0,18850.0,18850.0,159,-141,18845,42,18855,30
2017-02-03 11:19:00,11:19:06,11:19:48,39009,39093,18845.0,35,18850.0,10,18850.0,18850.0,18850.0,18850.0,79,1,18845,35,18850,3
2017-02-03 11:20:00,11:20:02,11:20:58,39106,39271,18850.0,22,18855.0,28,18855.0,18860.0,18850.0,18855.0,160,-34,18855,10,18860,41
2017-02-03 11:21:00,11:21:33,11:21:53,39289,39331,18855.0,42,18860.0,29,18855.0,18860.0,18855.0,18860.0,40,29,18855,38,18860,82
2017-02-03 11:22:00,11:22:58,11:22:58,39340,39340,18855.0,30,18860.0,64,18855.0,18855.0,18855.0,18855.0,1,-1,18855,33,18860,23
2017-02-03 11:23:00,11:23:25,11:23:26,39346,39351,18855.0,32,18860.0,64,18860.0,18860.0,18860.0,18860.0,34,34,18855,35,18860,32
2017-02-03 11:24:00,11:24:00,11:24:00,0,0,0.0,0,0.0,0,18860.0,18860.0,18860.0,18860.0,0,0,0,0,0,0
2017-02-03 11:25:00,11:25:01,11:25:48,39377,39438,18855.0,46,18860.0,39,18855.0,18855.0,18855.0,18855.0,51,-39,18855,31,18860,46
2017-02-03 11:26:00,11:26:07,11:26:56,39454,39492,18855.0,29,18860.0,43,18855.0,18855.0,18855.0,18855.0,39,-31,18850,39,18855,12
2017-02-03 11:27:00,11:27:15,11:27:34,39511,39612,18850.0,34,18855.0,46,18850.0,18855.0,18850.0,18850.0,106,-52,18845,47,18855,42
2017-02-03 11:28:00,11:28:06,11:28:47,39626,39679,18845.0,45,18850.0,22,18850.0,18850.0,18850.0,18850.0,33,29,18845,37,18850,18
2017-02-03 11:29:00,11:29:05,11:29:46,39686,39779,18845.0,36,18850.0,20,18845.0,18855.0,18845.0,18855.0,93,7,18855,13,18860,48
2017-02-03 11:30:00,11:30:00,11:30:59,39790,40366,18855.0,19,18860.0,48,18855.0,18910.0,18855.0,18905.0,724,366,18900,43,18905,14
2017-02-03 11:31:00,11:31:00,11:31:57,40369,41168,18900.0,43,18905.0,14,18905.0,18935.0,18900.0,18935.0,915,321,18935,1,18935,13
2017-02-03 11:32:00,11:32:00,11:32:59,41172,41841,18930.0,26,18935.0,17,18935.0,18935.0,18905.0,18915.0,863,-176,18910,20,18915,11
2017-02-03 11:33:00,11:33:03,11:33:59,41856,42480,18910.0,27,18915.0,32,18915.0,18955.0,18915.0,18945.0,824,289,18940,44,18945,2
2017-02-03 11:34:00,11:34:03,11:34:58,42490,42828,18940.0,35,18945.0,21,18940.0,18945.0,18915.0,18920.0,310,-67,18920,2,18925,30
2017-02-03 11:35:00,11:35:00,11:35:59,42833,43252,18920.0,8,18925.0,30,18920.0,18950.0,18920.0,18950.0,399,147,18945,23,18950,3
2017-02-03 11:36:00,11:36:00,11:36:59,43253,43888,18940.0,23,18945.0,24,18950.0,18965.0,18945.0,18960.0,751,143,18960,17,18965,20
2017-02-03 11:37:00,11:37:00,11:37:59,43895,45108,18960.0,21,18965.0,20,18965.0,19040.0,18960.0,19020.0,1505,730,19020,19,19025,14
2017-02-03 11:38:00,11:38:00,11:38:59,45111,45522,19020.0,19,19025.0,14,19025.0,19025.0,18985.0,18990.0,471,-171,18985,24,18990,8
2017-02-03 11:39:00,11:39:00,11:39:53,45523,45851,18985.0,23,18990.0,10,18990.0,18990.0,18980.0,18985.0,328,-54,18980,28,18985,15
2017-02-03 11:40:00,11:40:04,11:40:58,45868,46151,18980.0,28,18985.0,17,18980.0,18985.0,18970.0,18975.0,307,-3,18970,26,18975,15
2017-02-03 11:41:00,11:41:00,11:41:52,46156,46511,18970.0,30,18975.0,20,18970.0,18975.0,18955.0,18965.0,368,-145,18965,17,18970,11
2017-02-03 11:42:00,11:42:00,11:42:57,46528,46686,18965.0,21,18970.0,4,18970.0,18985.0,18965.0,18980.0,100,-11,18980,9,18985,25
2017-02-03 11:43:00,11:43:02,11:43:58,46691,46906,18980.0,12,18985.0,25,18980.0,18985.0,18965.0,18965.0,160,-78,18960,15,18965,17
2017-02-03 11:44:00,11:44:00,11:44:53,46914,47169,18960.0,22,18965.0,13,18965.0,18980.0,18965.0,18980.0,223,70,18975,21,18980,14
2017-02-03 11:45:00,11:45:00,11:45:57,47182,47384,18975.0,19,18980.0,12,18980.0,18980.0,18970.0,18970.0,163,-29,18960,15,18975,38
2017-02-03 11:46:00,11:46:03,11:46:57,47388,47568,18965.0,47,18970.0,11,18965.0,18965.0,18950.0,18960.0,146,-112,18955,20,18960,14
2017-02-03 11:47:00,11:47:00,11:47:45,47574,47812,18955.0,19,18960.0,14,18960.0,18970.0,18955.0,18955.0,206,-107,18955,26,18960,16
2017-02-03 11:48:00,11:48:02,11:48:59,47825,48051,18955.0,31,18960.0,18,18955.0,18955.0,18940.0,18940.0,171,-131,18940,15,18945,33
2017-02-03 11:49:00,11:49:07,11:49:59,48064,48336,18940.0,23,18945.0,33,18940.0,18940.0,18930.0,18940.0,257,-103,18940,33,18945,26
2017-02-03 11:50:00,11:50:02,11:50:51,48340,48494,18940.0,33,18945.0,30,18940.0,18940.0,18930.0,18930.0,147,-113,18925,26,18930,6
2017-02-03 11:51:00,11:51:03,11:51:47,48514,48699,18925.0,17,18930.0,19,18925.0,18930.0,18920.0,18930.0,163,-9,18930,28,18935,20
2017-02-03 11:52:00,11:52:02,11:52:56,48709,49009,18930.0,31,18935.0,17,18930.0,18930.0,18920.0,18930.0,311,-83,18925,21,18935,35
2017-02-03 11:53:00,11:53:01,11:53:54,49021,49386,18925.0,20,18930.0,12,18930.0,18930.0,18915.0,18915.0,373,-64,18910,11,18915,18
2017-02-03 11:54:00,11:54:03,11:54:54,49400,49852,18910.0,13,18915.0,26,18910.0,18945.0,18910.0,18925.0,701,387,18925,23,18930,23
2017-02-03 11:55:00,11:55:00,11:55:53,49863,50045,18925.0,17,18930.0,26,18925.0,18940.0,18925.0,18935.0,233,75,18935,17,18945,18
2017-02-03 11:56:00,11:56:00,11:56:58,50047,50246,18935.0,17,18940.0,23,18940.0,18945.0,18920.0,18930.0,226,-92,18925,31,18930,10
2017-02-03 11:57:00,11:57:00,11:57:57,50251,50351,18925.0,30,18930.0,15,18930.0,18935.0,18925.0,18935.0,51,11,18935,11,18940,33
2017-02-03 11:58:00,11:58:01,11:58:41,50358,50536,18935.0,15,18940.0,33,18935.0,18940.0,18935.0,18935.0,151,-33,18930,23,18935,7
2017-02-03 11:59:00,11:59:02,11:59:53,50557,50684,18930.0,28,18935.0,14,18930.0,18940.0,18930.0,18940.0,86,8,18935,29,18945,47
2017-02-03 12:00:00,12:00:00,12:00:58,50693,50829,18940.0,2,18945.0,44,18945.0,18945.0,18940.0,18940.0,36,4,18940,6,18945,46
2017-02-03 12:01:00,12:01:00,12:01:53,50832,51063,18940.0,6,18945.0,46,18945.0,18950.0,18935.0,18935.0,178,-62,18935,3,18940,28
2017-02-03 12:02:00,12:02:14,12:02:58,51086,51198,18930.0,18,18935.0,16,18930.0,18930.0,18925.0,18925.0,62,-10,18925,13,18930,35
2017-02-03 12:03:00,12:03:49,12:03:59,51225,51282,18925.0,15,18930.0,23,18925.0,18925.0,18920.0,18920.0,57,-25,18915,18,18920,22
2017-02-03 12:04:00,12:04:03,12:04:56,51287,51399,18915.0,22,18920.0,22,18920.0,18925.0,18920.0,18925.0,72,36,18920,30,18930,37
2017-02-03 12:05:00,12:05:12,12:05:36,51413,51464,18920.0,29,18925.0,9,18925.0,18935.0,18925.0,18935.0,31,9,18930,33,18940,44
2017-02-03 12:06:00,12:06:40,12:06:56,51503,51534,18935.0,33,18940.0,36,18935.0,18940.0,18935.0,18940.0,20,0,18935,30,18940,35
2017-02-03 12:07:00,12:07:00,12:07:54,51540,51650,18935.0,30,18940.0,29,18935.0,18945.0,18935.0,18945.0,86,58,18940,18,18945,29
2017-02-03 12:08:00,12:08:05,12:08:49,51659,51793,18940.0,31,18945.0,10,18945.0,18950.0,18945.0,18945.0,123,11,18945,20,18950,34
2017-02-03 12:09:00,12:09:00,12:09:57,51802,51866,18945.0,43,18950.0,31,18945.0,18945.0,18935.0,18935.0,81,-81,18930,23,18935,42
2017-02-03 12:10:00,12:10:05,12:10:55,51877,52008,18930.0,24,18935.0,44,18930.0,18935.0,18925.0,18935.0,112,38,18930,44,18935,30
2017-02-03 12:11:00,12:11:00,12:11:53,52012,52084,18930.0,44,18935.0,32,18935.0,18940.0,18935.0,18935.0,71,5,18935,32,18940,33
2017-02-03 12:12:00,12:12:18,12:12:59,52104,52181,18935.0,41,18940.0,31,18935.0,18935.0,18935.0,18935.0,68,-48,18930,42,18935,9
2017-02-03 12:13:00,12:13:01,12:13:34,52184,52256,18930.0,38,18935.0,10,18935.0,18935.0,18930.0,18930.0,35,-19,18930,44,18935,3
2017-02-03 12:14:00,12:14:13,12:14:44,52276,52326,18930.0,35,18935.0,16,18930.0,18935.0,18930.0,18935.0,30,10,18930,39,18935,11
2017-02-03 12:15:00,12:15:05,12:15:50,52340,52425,18930.0,34,18935.0,16,18935.0,18945.0,18930.0,18945.0,56,34,18940,26,18945,13
2017-02-03 12:16:00,12:16:03,12:16:58,52443,52545,18940.0,24,18945.0,27,18940.0,18945.0,18940.0,18940.0,90,-70,18940,9,18945,26
2017-02-03 12:17:00,12:17:01,12:17:42,52552,52621,18940.0,4,18945.0,26,18940.0,18940.0,18935.0,18935.0,52,-10,18930,36,18935,25
2017-02-03 12:18:00,12:18:05,12:18:06,52633,52650,18930.0,38,18935.0,24,18935.0,18940.0,18935.0,18940.0,30,30,18935,25,18940,23
2017-02-03 12:19:00,12:19:09,12:19:59,52678,52697,18935.0,27,18940.0,38,18940.0,18940.0,18935.0,18935.0,8,4,18935,39,18940,34
2017-02-03 12:20:00,12:20:19,12:20:54,52708,52742,18935.0,42,18940.0,34,18935.0,18935.0,18935.0,18935.0,48,-40,18935,12,18940,44
2017-02-03 12:21:00,12:21:25,12:21:56,52760,52797,18935.0,22,18940.0,44,18935.0,18935.0,18935.0,18935.0,41,-9,18930,36,18935,10
2017-02-03 12:22:00,12:22:18,12:22:18,52811,52811,18930.0,40,18935.0,2,18935.0,18935.0,18935.0,18935.0,1,1,18935,5,18940,48
2017-02-03 12:23:00,12:23:40,12:23:45,52832,52865,18935.0,34,18940.0,38,18940.0,18940.0,18940.0,18940.0,43,31,18935,33,18940,19
2017-02-03 12:24:00,12:24:47,12:24:47,52883,52883,18935.0,33,18940.0,26,18940.0,18940.0,18940.0,18940.0,1,1,18935,34,18940,30
2017-02-03 12:25:00,12:25:37,12:25:43,52901,52971,18935.0,35,18940.0,32,18935.0,18935.0,18930.0,18930.0,89,-89,18925,31,18930,1
2017-02-03 12:26:00,12:26:17,12:26:42,53001,53073,18925.0,31,18930.0,16,18930.0,18930.0,18915.0,18915.0,67,-53,18915,9,18920,27
2017-02-03 12:27:00,12:27:13,12:27:45,53115,53181,18915.0,12,18920.0,41,18915.0,18920.0,18915.0,18920.0,71,69,18920,8,18925,42
2017-02-03 12:28:00,12:28:00,12:28:59,53195,53299,18920.0,23,18925.0,34,18920.0,18925.0,18920.0,18925.0,85,5,18920,38,18930,35
2017-02-03 12:29:00,12:29:04,12:29:05,53308,53316,18925.0,6,18930.0,35,18925.0,18925.0,18925.0,18925.0,8,-8,18920,32,18925,6
2017-02-03 12:30:00,12:30:02,12:30:52,53331,53430,18920.0,35,18925.0,13,18925.0,18925.0,18920.0,18925.0,70,6,18920,29,18930,41
2017-02-03 12:31:00,12:31:43,12:31:56,53445,53462,18920.0,29,18925.0,19,18925.0,18925.0,18925.0,18925.0,8,6,18920,37,18930,41
2017-02-03 12:32:00,12:32:07,12:32:13,53465,53473,18920.0,37,18930.0,41,18925.0,18925.0,18925.0,18925.0,6,-2,18920,36,18925,14
2017-02-03 12:33:00,12:33:03,12:33:16,53489,53500,18920.0,33,18925.0,3,18925.0,18925.0,18925.0,18925.0,2,2,18925,9,18930,40
2017-02-03 12:34:00,12:34:03,12:34:56,53522,53624,18925.0,22,18930.0,23,18930.0,18935.0,18925.0,18925.0,82,28,18920,29,18925,6
2017-02-03 12:35:00,12:35:14,12:35:14,53636,53674,18920.0,34,18925.0,13,18925.0,18930.0,18925.0,18925.0,50,50,18920,33,18925,6
2017-02-03 12:36:00,12:36:06,12:36:59,53697,53811,18920.0,31,18925.0,11,18925.0,18930.0,18920.0,18920.0,122,0,18920,10,18925,21
2017-02-03 12:37:00,12:37:26,12:37:47,53826,53836,18920.0,17,18925.0,21,18920.0,18920.0,18920.0,18920.0,4,-4,18920,22,18925,21
2017-02-03 12:38:00,12:38:00,12:38:00,0,0,0.0,0,0.0,0,18920.0,18920.0,18920.0,18920.0,0,0,0,0,0,0
2017-02-03 12:39:00,12:39:00,12:39:00,0,0,0.0,0,0.0,0,18920.0,18920.0,18920.0,18920.0,0,0,0,0,0,0
2017-02-03 12:40:00,12:40:01,12:40:28,53864,53978,18920.0,32,18925.0,25,18925.0,18935.0,18925.0,18935.0,130,60,18930,36,18935,23
2017-02-03 12:41:00,12:41:11,12:41:47,54011,54083,18930.0,27,18935.0,26,18935.0,18940.0,18935.0,18940.0,48,35,18935,39,18940,20
2017-02-03 12:42:00,12:42:30,12:42:57,54099,54270,18935.0,32,18940.0,23,18940.0,18940.0,18920.0,18920.0,203,-175,18920,15,18925,25
2017-02-03 12:43:00,12:43:05,12:43:47,54279,54371,18920.0,16,18925.0,22,18920.0,18925.0,18920.0,18925.0,67,11,18920,38,18925,15
2017-02-03 12:44:00,12:44:21,12:44:40,54393,54465,18920.0,23,18925.0,21,18925.0,18930.0,18920.0,18925.0,74,30,18920,35,18925,18
2017-02-03 12:45:00,12:45:16,12:45:57,54479,54793,18920.0,29,18925.0,26,18920.0,18920.0,18900.0,18905.0,360,-8,18905,6,18910,26
2017-02-03 12:46:00,12:46:02,12:46:40,54800,54931,18905.0,7,18910.0,30,18905.0,18915.0,18900.0,18900.0,98,20,18900,39,18905,10
2017-02-03 12:47:00,12:47:08,12:47:48,54951,55142,18900.0,33,18905.0,10,18900.0,18900.0,18890.0,18895.0,162,-45,18890,34,18895,14
2017-02-03 12:48:00,12:48:01,12:48:48,55154,55253,18890.0,21,18895.0,40,18890.0,18895.0,18890.0,18895.0,94,0,18890,44,18895,15
2017-02-03 12:49:00,12:49:21,12:49:55,55279,55410,18890.0,50,18895.0,26,18895.0,18905.0,18895.0,18905.0,118,78,18900,41,18905,14
2017-02-03 12:50:00,12:50:23,12:50:51,55434,55474,18900.0,45,18905.0,18,18905.0,18905.0,18905.0,18905.0,17,13,18900,45,18905,4
2017-02-03 12:51:00,12:51:58,12:51:58,55508,55508,18900.0,42,18905.0,20,18900.0,18900.0,18900.0,18900.0,1,-1,18900,41,18905,21
2017-02-03 12:52:00,12:52:24,12:52:59,55512,55614,18900.0,38,18905.0,21,18900.0,18900.0,18885.0,18885.0,132,-132,18885,4,18890,34
2017-02-03 12:53:00,12:53:04,12:53:48,55627,55797,18885.0,33,18890.0,21,18890.0,18890.0,18875.0,18880.0,170,-25,18880,15,18885,27
2017-02-03 12:54:00,12:54:28,12:54:52,55821,55960,18880.0,21,18885.0,47,18885.0,18885.0,18870.0,18875.0,143,-75,18870,37,18875,2
2017-02-03 12:55:00,12:55:06,12:55:53,55969,56061,18875.0,14,18880.0,51,18880.0,18880.0,18870.0,18870.0,70,-7,18870,21,18875,48
2017-02-03 12:56:00,12:56:06,12:56:53,56073,56134,18870.0,31,18875.0,46,18875.0,18880.0,18875.0,18880.0,78,78,18875,24,18880,26
2017-02-03 12:57:00,12:57:17,12:57:43,56153,56238,18875.0,29,18880.0,28,18880.0,18885.0,18880.0,18885.0,68,68,18880,36,18885,16
2017-02-03 12:58:00,12:58:04,12:58:38,56253,56364,18880.0,39,18885.0,18,18885.0,18890.0,18885.0,18890.0,99,40,18890,12,18895,43
2017-02-03 12:59:00,12:59:11,12:59:53,56383,56428,18890.0,20,18895.0,46,18895.0,18895.0,18890.0,18890.0,24,-20,18885,30,18890,8
2017-02-03 13:00:00,13:00:16,13:00:58,56453,56546,18885.0,28,18890.0,31,18885.0,18890.0,18885.0,18890.0,94,28,18885,73,18895,47
2017-02-03 13:01:00,13:01:03,13:01:56,56551,56609,18885.0,73,18895.0,47,18890.0,18895.0,18890.0,18890.0,26,17,18890,23,18895,43
2017-02-03 13:02:00,13:02:03,13:02:58,56621,56775,18890.0,46,18895.0,37,18895.0,18900.0,18895.0,18900.0,163,115,18895,35,18900,9
2017-02-03 13:03:00,13:03:00,13:03:55,56781,56966,18895.0,35,18900.0,7,18900.0,18905.0,18895.0,18895.0,149,-23,18890,34,18900,31
2017-02-03 13:04:00,13:04:03,13:04:57,56984,57097,18890.0,16,18895.0,28,18890.0,18900.0,18890.0,18900.0,84,31,18895,50,18905,31
2017-02-03 13:05:00,13:05:02,13:05:02,57100,57104,18895.0,50,18905.0,31,18900.0,18900.0,18900.0,18900.0,5,0,18895,44,18900,9
2017-02-03 13:06:00,13:06:03,13:06:53,57142,57215,18895.0,35,18900.0,27,18895.0,18895.0,18890.0,18895.0,69,-35,18890,47,18900,39
2017-02-03 13:07:00,13:07:29,13:07:56,57233,57253,18890.0,38,18895.0,24,18890.0,18895.0,18890.0,18895.0,15,5,18895,6,18900,38
2017-02-03 13:08:00,13:08:06,13:08:40,57266,57293,18895.0,14,18900.0,45,18895.0,18900.0,18895.0,18895.0,11,3,18895,30,18900,20
2017-02-03 13:09:00,13:09:00,13:09:51,57304,57348,18895.0,36,18900.0,14,18895.0,18900.0,18895.0,18900.0,22,12,18900,18,18905,30
2017-02-03 13:10:00,13:10:11,13:10:59,57362,57453,18900.0,35,18905.0,30,18900.0,18910.0,18900.0,18910.0,68,22,18905,37,18910,21
2017-02-03 13:11:00,13:11:02,13:11:55,57458,57721,18905.0,37,18910.0,21,18910.0,18930.0,18910.0,18925.0,293,46,18925,13,18930,44
2017-02-03 13:12:00,13:12:10,13:12:55,57736,57912,18925.0,23,18930.0,46,18930.0,18930.0,18920.0,18920.0,197,17,18915,36,18925,32
2017-02-03 13:13:00,13:13:00,13:13:51,57926,58040,18920.0,22,18925.0,21,18920.0,18925.0,18910.0,18910.0,73,-59,18910,25,18915,33
2017-02-03 13:14:00,13:14:01,13:14:54,58049,58149,18910.0,34,18915.0,28,18910.0,18915.0,18910.0,18910.0,96,-14,18905,29,18910,27
2017-02-03 13:15:00,13:15:12,13:15:54,58169,58223,18905.0,45,18910.0,31,18905.0,18910.0,18905.0,18905.0,37,13,18905,30,18910,32
2017-02-03 13:16:00,13:16:03,13:16:44,58226,58327,18905.0,29,18910.0,31,18905.0,18915.0,18905.0,18910.0,90,82,18910,45,18915,18
2017-02-03 13:17:00,13:17:04,13:17:54,58332,58413,18910.0,45,18915.0,21,18910.0,18915.0,18910.0,18915.0,82,-38,18915,30,18920,55
2017-02-03 13:18:00,13:18:05,13:18:59,58416,58495,18915.0,28,18920.0,50,18915.0,18925.0,18915.0,18920.0,92,20,18915,45,18920,12
2017-02-03 13:19:00,13:19:05,13:19:48,58505,58617,18915.0,33,18920.0,27,18920.0,18920.0,18910.0,18910.0,111,-67,18905,41,18915,45
2017-02-03 13:20:00,13:20:03,13:20:55,58635,58734,18910.0,28,18915.0,31,18910.0,18920.0,18910.0,18920.0,80,6,18920,17,18925,32
2017-02-03 13:21:00,13:21:10,13:21:49,58752,58797,18920.0,36,18925.0,19,18925.0,18925.0,18920.0,18920.0,17,7,18920,27,18925,29
2017-02-03 13:22:00,13:22:08,13:22:50,58808,58946,18920.0,28,18925.0,29,18920.0,18920.0,18915.0,18915.0,110,-34,18915,23,18920,19
2017-02-03 13:23:00,13:23:04,13:23:54,58952,59073,18915.0,25,18920.0,16,18920.0,18925.0,18920.0,18925.0,69,5,18920,32,18925,19
2017-02-03 13:24:00,13:24:03,13:24:52,59080,59239,18920.0,30,18925.0,28,18925.0,18935.0,18925.0,18935.0,138,8,18930,34,18935,13
2017-02-03 13:25:00,13:25:00,13:25:51,59253,59445,18930.0,34,18935.0,37,18930.0,18935.0,18930.0,18930.0,184,6,18930,21,18935,37
2017-02-03 13:26:00,13:26:01,13:26:56,59456,59630,18930.0,35,18935.0,27,18930.0,18945.0,18930.0,18945.0,172,88,18940,35,18945,21
2017-02-03 13:27:00,13:27:03,13:27:49,59637,59805,18940.0,32,18945.0,22,18945.0,18945.0,18935.0,18935.0,168,-94,18930,37,18935,21
2017-02-03 13:28:00,13:28:02,13:28:45,59823,59909,18930.0,32,18935.0,26,18930.0,18945.0,18930.0,18945.0,49,21,18945,13,18950,40
2017-02-03 13:29:00,13:29:12,13:29:59,59934,60080,18945.0,32,18950.0,22,18945.0,18955.0,18945.0,18950.0,145,41,18950,33,18955,32
2017-02-03 13:30:00,13:30:02,13:30:59,60085,60229,18950.0,33,18955.0,32,18950.0,18955.0,18945.0,18945.0,212,-92,18940,39,18945,16
2017-02-03 13:31:00,13:31:00,13:31:54,60235,60336,18940.0,31,18945.0,18,18940.0,18945.0,18940.0,18945.0,84,-17,18940,34,18950,60
2017-02-03 13:32:00,13:32:04,13:32:22,60350,60418,18945.0,20,18950.0,54,18945.0,18945.0,18940.0,18940.0,54,-10,18940,10,18945,33
2017-02-03 13:33:00,13:33:01,13:33:50,60437,60587,18940.0,23,18945.0,34,18940.0,18940.0,18935.0,18935.0,98,4,18935,28,18940,18
2017-02-03 13:34:00,13:34:05,13:34:58,60598,60696,18935.0,34,18940.0,14,18935.0,18940.0,18935.0,18935.0,161,-97,18935,10,18940,34
2017-02-03 13:35:00,13:35:07,13:35:57,60705,60802,18935.0,18,18940.0,34,18940.0,18940.0,18935.0,18940.0,71,-9,18935,35,18940,14
2017-02-03 13:36:00,13:36:01,13:36:59,60808,60953,18935.0,12,18940.0,33,18935.0,18935.0,18930.0,18935.0,129,-37,18930,26,18935,22
2017-02-03 13:37:00,13:37:03,13:37:49,60961,61104,18930.0,27,18935.0,20,18935.0,18935.0,18930.0,18930.0,107,-5,18925,39,18935,41
2017-02-03 13:38:00,13:38:04,13:38:55,61128,61182,18925.0,39,18930.0,16,18930.0,18930.0,18925.0,18925.0,17,-5,18925,53,18930,17
2017-02-03 13:39:00,13:39:17,13:39:53,61192,61272,18925.0,53,18930.0,18,18930.0,18930.0,18920.0,18925.0,97,-47,18920,45,18925,5
2017-02-03 13:40:00,13:40:04,13:40:59,61293,61465,18920.0,26,18925.0,72,18920.0,18920.0,18915.0,18920.0,161,-136,18915,27,18920,46
2017-02-03 13:41:00,13:41:00,13:41:56,61468,61645,18915.0,27,18920.0,46,18915.0,18915.0,18910.0,18915.0,137,-49,18910,41,18920,46
2017-02-03 13:42:00,13:42:13,13:42:46,61654,61760,18915.0,22,18920.0,47,18915.0,18915.0,18905.0,18905.0,83,-51,18905,22,18910,30
2017-02-03 13:43:00,13:43:06,13:43:59,61783,61963,18905.0,19,18910.0,31,18910.0,18915.0,18905.0,18910.0,148,26,18905,36,18910,8
2017-02-03 13:44:00,13:44:00,13:44:51,61967,62057,18905.0,36,18910.0,9,18910.0,18915.0,18910.0,18915.0,64,38,18915,34,18920,33
2017-02-03 13:45:00,13:45:01,13:45:40,62072,62248,18915.0,49,18920.0,26,18920.0,18925.0,18920.0,18920.0,180,36,18920,19,18925,38
2017-02-03 13:46:00,13:46:01,13:46:51,62271,62355,18920.0,25,18925.0,41,18920.0,18920.0,18915.0,18915.0,46,-22,18915,32,18920,34
2017-02-03 13:47:00,13:47:02,13:47:48,62360,62472,18915.0,28,18920.0,34,18920.0,18920.0,18910.0,18910.0,131,-67,18905,49,18910,12
2017-02-03 13:48:00,13:48:00,13:48:52,62495,62643,18905.0,57,18910.0,32,18910.0,18910.0,18905.0,18905.0,139,39,18905,34,18910,25
2017-02-03 13:49:00,13:49:00,13:49:59,62651,62859,18905.0,32,18910.0,28,18910.0,18910.0,18895.0,18905.0,145,24,18900,45,18905,32
2017-02-03 13:50:00,13:50:05,13:50:56,62867,63030,18900.0,57,18905.0,12,18900.0,18900.0,18890.0,18890.0,148,-80,18890,17,18895,32
2017-02-03 13:51:00,13:51:07,13:51:59,63044,63156,18890.0,21,18895.0,32,18895.0,18900.0,18890.0,18900.0,64,-4,18895,28,18900,36
2017-02-03 13:52:00,13:52:07,13:52:52,63168,63283,18895.0,20,18900.0,65,18895.0,18895.0,18890.0,18895.0,73,5,18895,7,18900,51
2017-02-03 13:53:00,13:53:01,13:53:58,63293,63439,18895.0,35,18900.0,57,18900.0,18905.0,18895.0,18900.0,144,60,18895,71,18900,6
2017-02-03 13:54:00,13:54:06,13:54:58,63450,63595,18895.0,76,18900.0,9,18900.0,18910.0,18895.0,18910.0,136,114,18905,50,18910,20
2017-02-03 13:55:00,13:55:00,13:55:49,63599,63938,18905.0,50,18910.0,13,18905.0,18930.0,18905.0,18925.0,380,173,18925,45,18930,39
2017-02-03 13:56:00,13:56:01,13:56:57,63951,64248,18925.0,61,18930.0,38,18930.0,18930.0,18905.0,18905.0,340,-306,18905,46,18910,32
2017-02-03 13:57:00,13:57:01,13:57:57,64254,64455,18905.0,47,18910.0,38,18905.0,18910.0,18905.0,18905.0,279,27,18905,83,18910,94
2017-02-03 13:58:00,13:58:02,13:58:57,64465,64617,18905.0,78,18910.0,93,18905.0,18915.0,18905.0,18905.0,252,40,18905,46,18910,70
2017-02-03 13:59:00,13:59:00,13:59:59,64621,65030,18905.0,46,18910.0,66,18905.0,18910.0,18885.0,18895.0,666,-149,18890,63,18895,36
2017-02-03 14:00:00,14:00:00,14:00:55,65033,65555,18890.0,63,18895.0,36,18890.0,18910.0,18890.0,18905.0,793,100,18900,77,18905,32
2017-02-03 14:01:00,14:01:08,14:01:59,65564,65751,18900.0,104,18905.0,16,18905.0,18915.0,18905.0,18915.0,287,189,18910,77,18915,25
2017-02-03 14:02:00,14:02:01,14:02:51,65759,65904,18910.0,80,18915.0,37,18915.0,18920.0,18915.0,18915.0,226,104,18910,67,18920,124
2017-02-03 14:03:00,14:03:00,14:03:51,65919,66157,18915.0,47,18920.0,105,18920.0,18930.0,18915.0,18925.0,382,22,18920,117,18925,62
2017-02-03 14:04:00,14:04:01,14:04:57,66172,66251,18920.0,96,18925.0,98,18925.0,18925.0,18920.0,18920.0,71,-57,18915,41,18920,29
2017-02-03 14:05:00,14:05:02,14:05:48,66263,66435,18915.0,54,18920.0,20,18920.0,18925.0,18910.0,18925.0,146,18,18920,82,18925,72
2017-02-03 14:06:00,14:06:08,14:06:56,66453,66698,18920.0,64,18925.0,84,18925.0,18935.0,18925.0,18930.0,405,83,18925,59,18930,1
2017-02-03 14:07:00,14:07:12,14:07:54,66724,66813,18925.0,48,18930.0,48,18930.0,18930.0,18925.0,18930.0,40,-20,18925,20,18930,46
2017-02-03 14:08:00,14:08:03,14:08:36,66827,67010,18925.0,19,18930.0,50,18925.0,18925.0,18915.0,18925.0,209,-131,18920,39,18925,25
2017-02-03 14:09:00,14:09:01,14:09:59,67049,67200,18920.0,62,18925.0,31,18925.0,18930.0,18920.0,18930.0,134,-4,18925,11,18930,10
