,ST,ET,sidx,eidx,bB,bBS,bA,bAS,O,H,L,C,V,OF,eB,eBS,eA,eAS
2017-01-04 08:00:00,08:00:00,08:00:58,3247,3841,19265.0,86,19270.0,13,19270.0,19300.0,19265.0,19275.0,916,446,19275,33,19280,49
2017-01-04 08:01:00,08:01:00,08:01:58,3844,4111,19275.0,34,19280.0,53,19280.0,19290.0,19270.0,19290.0,299,95,19290,13,19295,38
2017-01-04 08:02:00,08:02:00,08:02:59,4117,4601,19290.0,13,19295.0,59,19290.0,19325.0,19290.0,19325.0,512,239,19325,10,19330,81
2017-01-04 08:03:00,08:03:00,08:03:56,4605,4918,19325.0,19,19330.0,81,19325.0,19335.0,19320.0,19335.0,335,79,19330,82,19335,2
2017-01-04 08:04:00,08:04:02,08:04:58,4935,5271,19330.0,80,19335.0,37,19335.0,19345.0,19330.0,19345.0,382,113,19345,48,19350,66
2017-01-04 08:05:00,08:05:03,08:05:59,5286,5652,19345.0,64,19350.0,58,19350.0,19350.0,19335.0,19340.0,473,80,19335,65,19345,72
2017-01-04 08:06:00,08:06:00,08:06:59,5656,5892,19340.0,9,19345.0,72,19340.0,19340.0,19330.0,19330.0,190,-112,19325,55,19330,28
2017-01-04 08:07:00,08:07:01,08:07:59,5900,6139,19325.0,62,19330.0,26,19330.0,19340.0,19325.0,19335.0,258,118,19335,47,19340,37
2017-01-04 08:08:00,08:08:09,08:08:59,6161,6343,19335.0,60,19340.0,25,19335.0,19340.0,19335.0,19335.0,173,27,19335,45,19340,38
2017-01-04 08:09:00,08:09:00,08:09:42,6348,6433,19335.0,47,19340.0,42,19340.0,19345.0,19340.0,19340.0,66,-24,19340,50,19345,36
2017-01-04 08:10:00,08:10:02,08:10:51,6463,6703,19340.0,84,19345.0,14,19345.0,19365.0,19345.0,19365.0,237,197,19360,64,19365,45
2017-01-04 08:11:00,08:11:00,08:11:41,6715,6917,19360.0,64,19365.0,42,19365.0,19365.0,19350.0,19355.0,267,-181,19350,70,19355,38
2017-01-04 08:12:00,08:12:00,08:12:48,6941,7105,19350.0,67,19355.0,44,19350.0,19360.0,19350.0,19360.0,181,85,19355,71,19360,36
2017-01-04 08:13:00,08:13:08,08:13:59,7131,7349,19355.0,67,19360.0,57,19355.0,19360.0,19355.0,19355.0,230,-52,19350,90,19355,1
2017-01-04 08:14:00,08:14:00,08:14:55,7353,7656,19350.0,90,19355.0,5,19355.0,19355.0,19340.0,19345.0,372,-115,19345,48,19350,80
2017-01-04 08:15:00,08:15:02,08:15:57,7669,7946,19345.0,80,19350.0,66,19350.0,19370.0,19345.0,19365.0,337,6,19360,45,19365,31
2017-01-04 08:16:00,08:16:00,08:16:53,7952,8284,19360.0,31,19365.0,57,19360.0,19375.0,19355.0,19370.0,369,17,19365,42,19370,22
2017-01-04 08:17:00,08:17:00,08:17:51,8295,8486,19365.0,42,19370.0,46,19365.0,19370.0,19365.0,19365.0,159,23,19360,57,19365,12
2017-01-04 08:18:00,08:18:00,08:18:58,8499,8647,19360.0,55,19365.0,25,19365.0,19370.0,19360.0,19370.0,140,30,19365,62,19370,39
2017-01-04 08:19:00,08:19:02,08:19:52,8655,8806,19365.0,65,19370.0,45,19370.0,19375.0,19370.0,19375.0,107,1,19370,50,19375,45
2017-01-04 08:20:00,08:20:00,08:20:55,8820,9006,19370.0,91,19375.0,19,19375.0,19385.0,19375.0,19385.0,194,138,19380,81,19385,10
2017-01-04 08:21:00,08:21:02,08:21:56,9018,9255,19380.0,88,19385.0,19,19380.0,19385.0,19375.0,19375.0,215,-161,19375,16,19380,85
2017-01-04 08:22:00,08:22:14,08:22:53,9270,9461,19375.0,49,19380.0,83,19380.0,19380.0,19370.0,19370.0,200,-8,19370,42,19375,72
2017-01-04 08:23:00,08:23:00,08:23:57,9469,9696,19370.0,58,19375.0,35,19375.0,19380.0,19370.0,19370.0,219,-11,19365,60,19370,13
2017-01-04 08:24:00,08:24:03,08:24:49,9710,9843,19365.0,72,19370.0,16,19370.0,19370.0,19365.0,19370.0,153,109,19370,5,19375,67
2017-01-04 08:25:00,08:25:05,08:25:55,9872,10121,19370.0,90,19375.0,46,19375.0,19375.0,19370.0,19370.0,227,-127,19370,13,19375,57
2017-01-04 08:26:00,08:26:05,08:26:58,10140,10253,19370.0,24,19375.0,56,19370.0,19375.0,19370.0,19375.0,125,-59,19375,4,19380,73
2017-01-04 08:27:00,08:27:04,08:27:57,10271,10564,19370.0,28,19375.0,63,19375.0,19380.0,19360.0,19365.0,294,94,19365,39,19370,64
2017-01-04 08:28:00,08:28:01,08:28:56,10577,10805,19365.0,67,19370.0,38,19370.0,19370.0,19355.0,19360.0,253,-165,19360,100,19365,41
2017-01-04 08:29:00,08:29:01,08:29:59,10811,10987,19360.0,101,19365.0,41,19365.0,19365.0,19365.0,19365.0,194,-78,19365,7,19370,63
2017-01-04 08:30:00,08:30:03,08:30:52,10999,11195,19365.0,55,19370.0,44,19370.0,19375.0,19360.0,19365.0,211,-65,19360,50,19365,9
2017-01-04 08:31:00,08:31:21,08:31:59,11229,11366,19360.0,55,19365.0,36,19360.0,19365.0,19360.0,19360.0,124,-71,19355,45,19360,7
2017-01-04 08:32:00,08:32:08,08:32:50,11383,11484,19355.0,50,19360.0,27,19355.0,19355.0,19350.0,19355.0,86,-30,19350,110,19355,18
2017-01-04 08:33:00,08:33:10,08:33:59,11496,11613,19350.0,112,19355.0,20,19350.0,19365.0,19350.0,19365.0,60,34,19360,50,19365,36
2017-01-04 08:34:00,08:34:23,08:34:59,11630,11801,19360.0,49,19365.0,57,19360.0,19360.0,19355.0,19355.0,141,-63,19350,102,19360,61
2017-01-04 08:35:00,08:35:13,08:35:58,11824,12040,19355.0,43,19360.0,45,19360.0,19375.0,19360.0,19370.0,196,130,19370,17,19375,44
2017-01-04 08:36:00,08:36:02,08:36:48,12052,12290,19370.0,29,19375.0,41,19375.0,19380.0,19375.0,19375.0,251,11,19375,5,19380,52
2017-01-04 08:37:00,08:37:03,08:37:40,12313,12420,19375.0,8,19380.0,54,19375.0,19375.0,19365.0,19365.0,99,-95,19365,15,19370,81
2017-01-04 08:38:00,08:38:00,08:38:38,12437,12627,19365.0,22,19370.0,85,19365.0,19375.0,19365.0,19370.0,179,25,19365,56,19370,5
2017-01-04 08:39:00,08:39:01,08:39:55,12651,12804,19365.0,30,19370.0,38,19365.0,19365.0,19360.0,19365.0,110,32,19360,56,19365,11
2017-01-04 08:40:00,08:40:06,08:40:53,12820,12912,19360.0,58,19365.0,15,19365.0,19365.0,19360.0,19365.0,48,28,19365,12,19370,58
2017-01-04 08:41:00,08:41:02,08:41:59,12921,13074,19365.0,30,19370.0,59,19365.0,19370.0,19365.0,19370.0,103,-7,19370,5,19375,53
2017-01-04 08:42:00,08:42:02,08:42:57,13079,13268,19370.0,8,19375.0,53,19370.0,19380.0,19370.0,19375.0,155,-21,19375,5,19380,68
2017-01-04 08:43:00,08:43:01,08:43:59,13273,13396,19375.0,7,19380.0,68,19375.0,19380.0,19370.0,19375.0,87,3,19375,1,19380,66
2017-01-04 08:44:00,08:44:00,08:44:58,13397,13512,19375.0,15,19380.0,73,19375.0,19380.0,19375.0,19380.0,41,-1,19375,42,19380,47
2017-01-04 08:45:00,08:45:00,08:45:59,13516,13625,19375.0,41,19380.0,47,19380.0,19380.0,19375.0,19380.0,54,-10,19375,33,19380,49
2017-01-04 08:46:00,08:46:09,08:46:53,13640,13789,19375.0,33,19380.0,59,19380.0,19390.0,19380.0,19385.0,145,45,19380,37,19385,49
2017-01-04 08:47:00,08:47:00,08:47:51,13796,13923,19380.0,25,19385.0,49,19380.0,19380.0,19370.0,19380.0,87,-11,19375,49,19380,35
2017-01-04 08:48:00,08:48:00,08:48:59,13936,14066,19375.0,43,19380.0,47,19380.0,19390.0,19380.0,19390.0,114,60,19385,67,19390,128
2017-01-04 08:49:00,08:49:09,08:49:50,14075,14507,19385.0,91,19390.0,129,19390.0,19415.0,19390.0,19410.0,669,439,19410,16,19415,56
2017-01-04 08:50:00,08:50:01,08:50:59,14524,14792,19410.0,28,19415.0,76,19410.0,19415.0,19410.0,19415.0,335,141,19410,66,19420,64
2017-01-04 08:51:00,08:51:00,08:51:58,14795,15091,19410.0,66,19420.0,64,19415.0,19425.0,19410.0,19425.0,335,20,19420,47,19425,21
2017-01-04 08:52:00,08:52:01,08:52:52,15100,15281,19420.0,36,19425.0,48,19420.0,19425.0,19420.0,19425.0,144,-6,19420,59,19425,52
2017-01-04 08:53:00,08:53:02,08:53:59,15294,15605,19420.0,60,19425.0,42,19425.0,19430.0,19425.0,19425.0,342,-116,19420,85,19425,2
2017-01-04 08:54:00,08:54:04,08:54:57,15615,15795,19420.0,84,19425.0,37,19425.0,19430.0,19420.0,19430.0,151,131,19430,19,19435,84
2017-01-04 08:55:00,08:55:00,08:55:47,15804,16094,19430.0,35,19435.0,81,19435.0,19435.0,19430.0,19430.0,313,93,19425,52,19430,30
2017-01-04 08:56:00,08:56:00,08:56:56,16109,16399,19425.0,43,19430.0,49,19430.0,19440.0,19425.0,19435.0,379,66,19435,30,19440,100
2017-01-04 08:57:00,08:57:11,08:57:58,16421,16613,19435.0,52,19440.0,92,19440.0,19445.0,19440.0,19440.0,166,2,19440,37,19445,96
2017-01-04 08:58:00,08:58:00,08:58:56,16616,16768,19440.0,35,19445.0,100,19445.0,19445.0,19435.0,19435.0,143,-109,19430,53,19435,29
2017-01-04 08:59:00,08:59:02,08:59:47,16779,16902,19430.0,74,19435.0,44,19430.0,19440.0,19430.0,19435.0,125,79,19435,29,19440,79
2017-01-04 09:00:00,09:00:00,09:00:59,16914,17203,19435.0,54,19440.0,78,19440.0,19440.0,19430.0,19435.0,368,12,19430,54,19440,76
2017-01-04 09:01:00,09:01:00,09:01:49,17206,17425,19430.0,54,19440.0,76,19435.0,19445.0,19435.0,19440.0,254,8,19440,7,19445,70
2017-01-04 09:02:00,09:02:00,09:02:55,17444,17549,19440.0,21,19445.0,77,19445.0,19445.0,19435.0,19435.0,82,-14,19435,109,19440,63
2017-01-04 09:03:00,09:03:03,09:03:38,17562,17828,19435.0,108,19440.0,69,19440.0,19440.0,19430.0,19440.0,446,8,19435,96,19440,7
2017-01-04 09:04:00,09:04:01,09:04:33,17850,17990,19435.0,71,19440.0,66,19440.0,19440.0,19435.0,19435.0,139,1,19430,69,19435,2
2017-01-04 09:05:00,09:05:05,09:05:54,18023,18151,19430.0,24,19435.0,72,19435.0,19435.0,19430.0,19435.0,138,18,19430,74,19435,7
2017-01-04 09:06:00,09:06:08,09:06:58,18170,18392,19430.0,82,19435.0,13,19430.0,19445.0,19430.0,19445.0,300,150,19445,8,19450,90
2017-01-04 09:07:00,09:07:08,09:07:59,18408,18499,19445.0,37,19450.0,75,19445.0,19445.0,19445.0,19445.0,67,1,19440,94,19445,40
2017-01-04 09:08:00,09:08:09,09:08:59,18507,18586,19440.0,93,19445.0,42,19445.0,19445.0,19440.0,19445.0,56,52,19440,96,19445,17
2017-01-04 09:09:00,09:09:15,09:09:58,18601,18631,19440.0,101,19445.0,12,19445.0,19445.0,19440.0,19440.0,10,8,19440,104,19445,26
2017-01-04 09:10:00,09:10:00,09:10:44,18635,18727,19440.0,104,19445.0,25,19445.0,19450.0,19440.0,19440.0,88,40,19440,90,19445,37
2017-01-04 09:11:00,09:11:01,09:11:48,18742,18947,19440.0,86,19445.0,37,19445.0,19445.0,19440.0,19440.0,243,-169,19440,27,19445,56
2017-01-04 09:12:00,09:12:01,09:12:54,18963,19218,19440.0,35,19445.0,82,19440.0,19440.0,19435.0,19435.0,311,42,19435,11,19440,74
2017-01-04 09:13:00,09:13:00,09:13:57,19227,19359,19435.0,27,19440.0,73,19435.0,19435.0,19425.0,19425.0,106,-44,19425,46,19430,80
2017-01-04 09:14:00,09:14:05,09:14:55,19369,19638,19425.0,60,19430.0,123,19425.0,19435.0,19425.0,19435.0,322,140,19435,70,19440,59
2017-01-04 09:15:00,09:15:00,09:15:31,19646,19809,19435.0,76,19440.0,55,19440.0,19440.0,19430.0,19430.0,205,-119,19430,3,19435,99
2017-01-04 09:16:00,09:16:16,09:16:58,19868,19946,19430.0,62,19435.0,91,19430.0,19435.0,19430.0,19435.0,59,23,19430,83,19435,52
2017-01-04 09:17:00,09:17:13,09:17:56,19953,20153,19430.0,84,19435.0,50,19435.0,19440.0,19435.0,19435.0,216,38,19430,66,19435,1
2017-01-04 09:18:00,09:18:11,09:18:51,20172,20327,19430.0,46,19435.0,41,19430.0,19435.0,19430.0,19430.0,121,-65,19425,47,19430,11
2017-01-04 09:19:00,09:19:06,09:19:39,20357,20426,19425.0,73,19430.0,18,19430.0,19430.0,19425.0,19425.0,49,-17,19425,8,19430,67
2017-01-04 09:20:00,09:20:13,09:20:58,20457,20612,19425.0,19,19430.0,67,19425.0,19430.0,19425.0,19425.0,192,-12,19425,9,19430,63
2017-01-04 09:21:00,09:21:07,09:21:57,20625,20828,19425.0,37,19430.0,64,19425.0,19435.0,19420.0,19430.0,248,110,19425,77,19430,37
2017-01-04 09:22:00,09:22:15,09:22:50,20845,20920,19425.0,79,19430.0,21,19430.0,19430.0,19430.0,19430.0,59,27,19425,85,19430,24
2017-01-04 09:23:00,09:23:09,09:23:50,20943,21044,19425.0,92,19430.0,39,19430.0,19435.0,19430.0,19435.0,88,30,19430,53,19435,24
2017-01-04 09:24:00,09:24:22,09:24:58,21089,21291,19430.0,40,19435.0,50,19430.0,19435.0,19425.0,19435.0,221,-63,19435,30,19440,48
2017-01-04 09:25:00,09:25:04,09:25:23,21308,21361,19435.0,56,19440.0,19,19440.0,19445.0,19440.0,19445.0,41,39,19440,49,19445,63
2017-01-04 09:26:00,09:26:00,09:26:58,21384,21708,19440.0,53,19445.0,63,19445.0,19460.0,19445.0,19445.0,490,158,19445,30,19450,55
2017-01-04 09:27:00,09:27:05,09:27:55,21728,21902,19445.0,24,19450.0,99,19445.0,19445.0,19440.0,19445.0,170,-8,19445,72,19450,60
2017-01-04 09:28:00,09:28:07,09:28:48,21914,22048,19445.0,54,19450.0,70,19450.0,19450.0,19445.0,19445.0,105,-45,19445,14,19450,77
2017-01-04 09:29:00,09:29:00,09:29:43,22068,22224,19445.0,35,19450.0,65,19445.0,19455.0,19445.0,19455.0,128,2,19450,27,19455,59
2017-01-04 09:30:00,09:30:00,09:30:55,22250,22404,19450.0,15,19455.0,68,19450.0,19450.0,19445.0,19445.0,132,-48,19440,75,19445,2
2017-01-04 09:31:00,09:31:03,09:31:54,22419,22484,19440.0,47,19445.0,44,19445.0,19445.0,19445.0,19445.0,37,37,19445,20,19450,57
2017-01-04 09:32:00,09:32:04,09:32:58,22503,22665,19445.0,44,19450.0,28,19450.0,19455.0,19445.0,19445.0,106,-10,19445,33,19450,46
2017-01-04 09:33:00,09:33:45,09:33:58,22719,22829,19445.0,35,19450.0,54,19450.0,19455.0,19450.0,19455.0,104,44,19450,83,19460,59
2017-01-04 09:34:00,09:34:12,09:34:57,22851,23063,19455.0,29,19460.0,57,19460.0,19465.0,19460.0,19460.0,231,63,19460,6,19465,47
2017-01-04 09:35:00,09:35:14,09:35:52,23082,23214,19460.0,40,19465.0,113,19460.0,19460.0,19455.0,19455.0,111,-89,19455,13,19460,63
2017-01-04 09:36:00,09:36:05,09:36:56,23229,23475,19455.0,25,19460.0,67,19460.0,19460.0,19450.0,19455.0,219,47,19450,70,19455,3
2017-01-04 09:37:00,09:37:00,09:37:52,23483,23576,19450.0,75,19455.0,18,19455.0,19455.0,19455.0,19455.0,19,7,19455,42,19460,61
2017-01-04 09:38:00,09:38:08,09:38:52,23597,23757,19455.0,53,19460.0,61,19460.0,19470.0,19460.0,19465.0,159,95,19465,49,19470,167
2017-01-04 09:39:00,09:39:32,09:39:58,23811,23971,19465.0,48,19470.0,166,19465.0,19470.0,19465.0,19470.0,265,175,19470,2,19475,96
2017-01-04 09:40:00,09:40:00,09:40:57,23975,24269,19470.0,2,19475.0,98,19470.0,19480.0,19470.0,19475.0,314,166,19475,5,19480,67
2017-01-04 09:41:00,09:41:00,09:41:57,24275,24501,19475.0,15,19480.0,67,19480.0,19485.0,19475.0,19485.0,161,112,19480,58,19485,7
2017-01-04 09:42:00,09:42:00,09:42:58,24507,24763,19480.0,59,19485.0,17,19485.0,19490.0,19480.0,19490.0,230,52,19485,4,19490,56
2017-01-04 09:43:00,09:43:00,09:43:59,24770,24951,19485.0,3,19490.0,60,19490.0,19490.0,19485.0,19485.0,112,-42,19480,68,19485,4
2017-01-04 09:44:00,09:44:31,09:44:59,24999,25123,19480.0,48,19485.0,36,19485.0,19485.0,19475.0,19480.0,138,-46,19475,16,19480,44
2017-01-04 09:45:00,09:45:00,09:45:55,25126,25334,19475.0,16,19480.0,44,19480.0,19480.0,19475.0,19480.0,153,63,19480,52,19485,74
2017-01-04 09:46:00,09:46:00,09:46:51,25346,25601,19480.0,54,19485.0,57,19485.0,19490.0,19480.0,19485.0,210,96,19485,5,19490,64
2017-01-04 09:47:00,09:47:00,09:47:51,25627,25786,19485.0,38,19490.0,53,19490.0,19490.0,19485.0,19490.0,84,-32,19485,31,19490,46
2017-01-04 09:48:00,09:48:03,09:48:58,25793,25958,19485.0,35,19490.0,45,19490.0,19490.0,19485.0,19485.0,108,9,19485,15,19490,63
2017-01-04 09:49:00,09:49:18,09:49:53,25976,26018,19485.0,37,19490.0,59,19490.0,19490.0,19485.0,19485.0,23,-19,19485,35,19490,64
2017-01-04 09:50:00,09:50:06,09:50:21,26041,26123,19485.0,44,19490.0,69,19490.0,19490.0,19490.0,19490.0,85,33,19485,35,19490,46
2017-01-04 09:51:00,09:51:12,09:51:56,26201,26441,19485.0,51,19490.0,42,19490.0,19495.0,19485.0,19490.0,296,142,19485,42,19490,30
2017-01-04 09:52:00,09:52:01,09:52:32,26455,26597,19485.0,61,19490.0,37,19490.0,19495.0,19490.0,19490.0,148,79,19490,77,19495,10
2017-01-04 09:53:00,09:53:00,09:53:49,26633,26752,19490.0,69,19495.0,52,19495.0,19495.0,19490.0,19490.0,107,58,19490,44,19495,69
2017-01-04 09:54:00,09:54:00,09:54:55,26768,26829,19490.0,52,19495.0,45,19495.0,19495.0,19490.0,19490.0,5,1,19490,53,19495,76
2017-01-04 09:55:00,09:55:01,09:55:56,26834,26926,19490.0,53,19495.0,76,19495.0,19495.0,19495.0,19495.0,90,90,19495,32,19500,65
2017-01-04 09:56:00,09:56:01,09:56:58,26941,27104,19495.0,61,19500.0,53,19500.0,19500.0,19490.0,19490.0,165,-25,19490,65,19495,18
2017-01-04 09:57:00,09:57:08,09:57:47,27131,27253,19490.0,36,19495.0,63,19490.0,19495.0,19490.0,19490.0,105,-35,19490,5,19495,74
2017-01-04 09:58:00,09:58:01,09:58:34,27270,27311,19490.0,40,19495.0,64,19490.0,19495.0,19490.0,19490.0,18,0,19490,30,19495,83
2017-01-04 09:59:00,09:59:13,09:59:59,27341,27484,19490.0,49,19495.0,71,19495.0,19500.0,19490.0,19495.0,175,97,19495,2,19500,46
2017-01-04 10:00:00,10:00:00,10:00:58,27485,27736,19495.0,13,19500.0,47,19495.0,19500.0,19490.0,19495.0,269,-140,19490,69,19500,57
2017-01-04 10:01:00,10:01:02,10:01:59,27742,28035,19495.0,3,19500.0,57,19495.0,19505.0,19495.0,19500.0,310,64,19500,6,19505,73
2017-01-04 10:02:00,10:02:00,10:02:56,28038,28281,19500.0,6,19505.0,73,19500.0,19500.0,19485.0,19490.0,238,22,19490,65,19495,24
2017-01-04 10:03:00,10:03:00,10:03:50,28285,28422,19490.0,69,19495.0,24,19495.0,19495.0,19490.0,19495.0,135,-63,19490,59,19495,45
2017-01-04 10:04:00,10:04:00,10:04:51,28434,28579,19490.0,55,19495.0,52,19495.0,19495.0,19490.0,19495.0,128,48,19490,54,19495,42
2017-01-04 10:05:00,10:05:01,10:05:50,28592,28790,19490.0,60,19495.0,42,19495.0,19505.0,19495.0,19495.0,190,54,19490,68,19495,13
2017-01-04 10:06:00,10:06:02,10:06:53,28800,28933,19490.0,69,19495.0,37,19495.0,19495.0,19485.0,19495.0,66,-10,19490,50,19495,45
2017-01-04 10:07:00,10:07:00,10:07:53,28947,29163,19490.0,12,19495.0,89,19490.0,19505.0,19490.0,19495.0,262,70,19490,65,19495,30
2017-01-04 10:08:00,10:08:03,10:08:54,29176,29296,19490.0,57,19495.0,33,19495.0,19500.0,19490.0,19500.0,57,47,19495,27,19500,64
2017-01-04 10:09:00,10:09:04,10:09:59,29310,29398,19495.0,10,19500.0,66,19500.0,19500.0,19500.0,19500.0,79,79,19495,68,19500,11
2017-01-04 10:10:00,10:10:00,10:10:54,29401,29602,19495.0,68,19500.0,11,19500.0,19510.0,19500.0,19505.0,225,89,19505,18,19510,51
2017-01-04 10:11:00,10:11:05,10:11:51,29615,29718,19505.0,41,19510.0,47,19505.0,19505.0,19505.0,19505.0,114,-38,19505,59,19510,60
2017-01-04 10:12:00,10:12:00,10:12:56,29730,29915,19505.0,61,19510.0,59,19510.0,19515.0,19510.0,19515.0,169,109,19510,68,19515,4
2017-01-04 10:13:00,10:13:25,10:13:56,29951,30051,19510.0,71,19515.0,17,19515.0,19520.0,19515.0,19515.0,108,48,19510,63,19515,8
2017-01-04 10:14:00,10:14:01,10:14:35,30063,30149,19510.0,25,19515.0,44,19510.0,19510.0,19505.0,19510.0,64,-33,19505,25,19510,66
2017-01-04 10:15:00,10:15:46,10:15:59,30202,30261,19505.0,43,19510.0,71,19510.0,19510.0,19505.0,19510.0,116,114,19510,7,19515,59
2017-01-04 10:16:00,10:16:00,10:16:58,30264,30408,19510.0,7,19515.0,59,19510.0,19515.0,19510.0,19510.0,167,-49,19505,65,19510,5
2017-01-04 10:17:00,10:17:12,10:17:40,30429,30475,19505.0,52,19510.0,39,19505.0,19515.0,19505.0,19515.0,48,46,19510,85,19515,14
2017-01-04 10:18:00,10:18:09,10:18:11,30499,30543,19510.0,82,19515.0,27,19510.0,19510.0,19510.0,19510.0,108,-108,19510,26,19515,40
2017-01-04 10:19:00,10:19:09,10:19:59,30593,30734,19510.0,49,19515.0,45,19510.0,19520.0,19510.0,19520.0,142,-6,19515,45,19520,57
2017-01-04 10:20:00,10:20:04,10:20:55,30740,30814,19515.0,46,19520.0,53,19515.0,19520.0,19515.0,19515.0,25,-21,19515,24,19520,70
2017-01-04 10:21:00,10:21:00,10:21:58,30818,30942,19515.0,25,19520.0,70,19515.0,19515.0,19510.0,19510.0,99,-83,19510,6,19515,57
2017-01-04 10:22:00,10:22:17,10:22:26,30966,30985,19510.0,41,19515.0,52,19510.0,19510.0,19510.0,19510.0,7,-7,19510,30,19515,54
2017-01-04 10:23:00,10:23:28,10:23:59,31039,31289,19510.0,33,19515.0,61,19515.0,19525.0,19515.0,19520.0,304,216,19515,92,19525,75
2017-01-04 10:24:00,10:24:11,10:24:55,31305,31375,19520.0,35,19525.0,78,19525.0,19525.0,19520.0,19520.0,39,33,19520,28,19525,60
2017-01-04 10:25:00,10:25:13,10:25:48,31396,31483,19520.0,52,19525.0,56,19525.0,19530.0,19525.0,19530.0,28,26,19525,80,19530,52
2017-01-04 10:26:00,10:26:00,10:26:56,31503,31728,19525.0,79,19530.0,61,19525.0,19530.0,19515.0,19515.0,313,-181,19510,49,19515,17
2017-01-04 10:27:00,10:27:02,10:27:58,31738,32066,19510.0,71,19515.0,35,19510.0,19510.0,19500.0,19500.0,420,-132,19500,12,19505,68
2017-01-04 10:28:00,10:28:00,10:28:57,32072,32307,19500.0,16,19505.0,69,19505.0,19515.0,19505.0,19515.0,251,99,19510,74,19520,55
2017-01-04 10:29:00,10:29:00,10:29:58,32313,32465,19515.0,15,19520.0,54,19520.0,19520.0,19510.0,19510.0,120,-72,19510,21,19515,80
2017-01-04 10:30:00,10:30:00,10:30:54,32472,32644,19510.0,28,19515.0,74,19510.0,19515.0,19505.0,19510.0,139,-5,19510,48,19515,51
2017-01-04 10:31:00,10:31:01,10:31:49,32652,32733,19510.0,48,19515.0,49,19510.0,19515.0,19510.0,19510.0,43,-23,19505,34,19510,49
2017-01-04 10:32:00,10:32:19,10:32:40,32751,32766,19505.0,37,19510.0,51,19510.0,19510.0,19510.0,19510.0,3,3,19505,39,19510,59
2017-01-04 10:33:00,10:33:14,10:33:34,32781,32872,19505.0,43,19510.0,53,19505.0,19505.0,19505.0,19505.0,118,-42,19505,57,19510,39
2017-01-04 10:34:00,10:34:02,10:34:31,32889,32995,19505.0,63,19510.0,64,19505.0,19510.0,19500.0,19510.0,126,-66,19505,29,19510,53
2017-01-04 10:35:00,10:35:01,10:35:01,33016,33017,19505.0,36,19510.0,47,19510.0,19510.0,19510.0,19510.0,2,2,19505,41,19510,50
2017-01-04 10:36:00,10:36:00,10:36:35,33047,33073,19505.0,49,19510.0,42,19510.0,19510.0,19505.0,19510.0,3,1,19505,48,19510,45
2017-01-04 10:37:00,10:37:07,10:37:57,33083,33144,19505.0,46,19510.0,54,19510.0,19510.0,19505.0,19505.0,51,-15,19500,71,19505,18
2017-01-04 10:38:00,10:38:26,10:38:29,33158,33188,19500.0,73,19505.0,11,19505.0,19505.0,19505.0,19505.0,29,25,19505,41,19510,30
2017-01-04 10:39:00,10:39:00,10:39:00,0,0,0.0,0,0.0,0,19505.0,19505.0,19505.0,19505.0,0,0,0,0,0,0
2017-01-04 10:40:00,10:40:01,10:40:01,33237,33247,19505.0,28,19510.0,55,19505.0,19505.0,19505.0,19505.0,14,-14,19500,51,19505,23
2017-01-04 10:41:00,10:41:52,10:41:52,33289,33289,19500.0,70,19505.0,35,19505.0,19505.0,19505.0,19505.0,1,1,19500,69,19505,34
2017-01-04 10:42:00,10:42:32,10:42:55,33304,33356,19500.0,69,19505.0,37,19505.0,19510.0,19505.0,19510.0,31,31,19505,24,19510,55
2017-01-04 10:43:00,10:43:03,10:43:49,33360,33447,19505.0,24,19510.0,56,19510.0,19510.0,19500.0,19505.0,52,8,19505,19,19510,57
2017-01-04 10:44:00,10:44:16,10:44:43,33463,33483,19505.0,32,19510.0,56,19510.0,19510.0,19505.0,19510.0,5,3,19505,24,19510,57
2017-01-04 10:45:00,10:45:03,10:45:59,33501,33610,19505.0,29,19510.0,57,19505.0,19505.0,19500.0,19505.0,57,-19,19500,65,19505,3
2017-01-04 10:46:00,10:46:00,10:46:53,33615,33672,19500.0,64,19505.0,1,19505.0,19510.0,19505.0,19505.0,27,-3,19505,1,19510,55
2017-01-04 10:47:00,10:47:08,10:47:54,33684,33729,19500.0,67,19510.0,56,19510.0,19510.0,19505.0,19505.0,22,-12,19500,68,19505,8
2017-01-04 10:48:00,10:48:00,10:48:38,33737,33898,19500.0,67,19505.0,11,19500.0,19500.0,19495.0,19500.0,178,12,19495,38,19500,3
2017-01-04 10:49:00,10:49:00,10:49:00,0,0,0.0,0,0.0,0,19500.0,19500.0,19500.0,19500.0,0,0,0,0,0,0
2017-01-04 10:50:00,10:50:03,10:50:53,33960,34103,19495.0,44,19500.0,43,19500.0,19500.0,19495.0,19500.0,148,-104,19500,62,19505,21
2017-01-04 10:51:00,10:51:04,10:51:56,34108,34334,19500.0,62,19505.0,21,19505.0,19520.0,19505.0,19510.0,270,202,19505,39,19510,32
2017-01-04 10:52:00,10:52:05,10:52:19,34345,34376,19505.0,47,19510.0,40,19510.0,19510.0,19510.0,19510.0,33,-9,19510,9,19515,52
2017-01-04 10:53:00,10:53:06,10:53:06,34395,34404,19510.0,5,19515.0,54,19510.0,19510.0,19510.0,19510.0,11,-11,19505,46,19510,27
2017-01-04 10:54:00,10:54:16,10:54:47,34435,34463,19505.0,43,19510.0,34,19510.0,19515.0,19510.0,19515.0,22,20,19510,24,19515,49
2017-01-04 10:55:00,10:55:09,10:55:24,34472,34542,19510.0,27,19515.0,49,19510.0,19510.0,19505.0,19505.0,67,-45,19500,42,19505,28
2017-01-04 10:56:00,10:56:22,10:56:31,34576,34631,19500.0,33,19505.0,38,19500.0,19500.0,19495.0,19500.0,70,-64,19500,29,19505,44
2017-01-04 10:57:00,10:57:06,10:57:50,34645,34709,19500.0,15,19505.0,46,19500.0,19500.0,19495.0,19495.0,45,-43,19490,40,19500,39
2017-01-04 10:58:00,10:58:27,10:58:39,34731,34816,19495.0,40,19500.0,19,19500.0,19505.0,19495.0,19495.0,108,-18,19495,25,19500,25
2017-01-04 10:59:00,10:59:02,10:59:49,34836,34869,19495.0,39,19500.0,28,19495.0,19495.0,19495.0,19495.0,23,-23,19490,40,19495,21
2017-01-04 11:00:00,11:00:05,11:00:50,34881,35004,19490.0,39,19495.0,24,19490.0,19500.0,19485.0,19500.0,80,54,19495,30,19500,17
2017-01-04 11:01:00,11:01:10,11:01:56,35027,35061,19495.0,33,19500.0,27,19500.0,19500.0,19500.0,19500.0,15,15,19495,17,19500,36
2017-01-04 11:02:00,11:02:01,11:02:58,35069,35110,19495.0,25,19500.0,45,19500.0,19500.0,19495.0,19495.0,20,16,19495,33,19500,40
2017-01-04 11:03:00,11:03:02,11:03:53,35116,35156,19495.0,33,19500.0,39,19500.0,19500.0,19500.0,19500.0,14,14,19495,39,19500,20
2017-01-04 11:04:00,11:04:02,11:04:57,35163,35236,19495.0,40,19500.0,21,19500.0,19500.0,19500.0,19500.0,36,36,19495,37,19500,30
2017-01-04 11:05:00,11:05:03,11:05:54,35238,35301,19495.0,36,19500.0,30,19500.0,19500.0,19495.0,19500.0,46,-24,19495,34,19500,13
2017-01-04 11:06:00,11:06:04,11:06:38,35304,35330,19495.0,34,19500.0,13,19500.0,19500.0,19495.0,19500.0,11,5,19495,34,19500,16
2017-01-04 11:07:00,11:07:45,11:07:45,35345,35345,19495.0,33,19500.0,30,19500.0,19500.0,19500.0,19500.0,1,1,19495,32,19500,29
2017-01-04 11:08:00,11:08:19,11:08:59,35362,35387,19495.0,32,19500.0,33,19500.0,19500.0,19500.0,19500.0,7,7,19495,28,19500,29
2017-01-04 11:09:00,11:09:17,11:09:48,35399,35517,19495.0,37,19500.0,16,19500.0,19510.0,19500.0,19510.0,96,40,19505,19,19510,41
2017-01-04 11:10:00,11:10:14,11:10:20,35533,35549,19505.0,23,19510.0,39,19505.0,19505.0,19505.0,19505.0,7,-7,19505,29,19510,40
2017-01-04 11:11:00,11:11:02,11:11:20,35569,35581,19505.0,28,19510.0,44,19505.0,19510.0,19505.0,19510.0,3,-1,19505,35,19510,34
2017-01-04 11:12:00,11:12:24,11:12:52,35613,35716,19505.0,56,19510.0,23,19505.0,19515.0,19505.0,19510.0,93,7,19505,54,19510,23
2017-01-04 11:13:00,11:13:08,11:13:59,35721,35769,19505.0,54,19510.0,24,19510.0,19515.0,19510.0,19515.0,30,30,19510,50,19515,42
2017-01-04 11:14:00,11:14:02,11:14:56,35774,35885,19510.0,48,19515.0,43,19515.0,19515.0,19510.0,19510.0,95,-31,19505,72,19510,3
2017-01-04 11:15:00,11:15:01,11:15:50,35895,35941,19505.0,75,19510.0,5,19510.0,19510.0,19510.0,19510.0,23,23,19505,40,19510,105
2017-01-04 11:16:00,11:16:00,11:16:50,35946,35974,19505.0,40,19510.0,104,19510.0,19510.0,19510.0,19510.0,4,4,19505,46,19510,100
2017-01-04 11:17:00,11:17:07,11:17:51,35986,36039,19505.0,39,19510.0,105,19505.0,19510.0,19505.0,19510.0,55,-21,19505,21,19510,101
2017-01-04 11:18:00,11:18:02,11:18:02,36046,36077,19505.0,23,19510.0,100,19505.0,19505.0,19505.0,19505.0,64,-64,19505,12,19510,48
2017-01-04 11:19:00,11:19:35,11:19:35,36117,36117,19505.0,43,19510.0,44,19510.0,19510.0,19510.0,19510.0,1,1,19505,42,19510,43
2017-01-04 11:20:00,11:20:28,11:20:47,36133,36151,19505.0,42,19510.0,55,19510.0,19510.0,19505.0,19510.0,8,4,19505,32,19510,54
2017-01-04 11:21:00,11:21:42,11:21:54,36171,36175,19505.0,40,19510.0,57,19505.0,19510.0,19505.0,19510.0,3,-1,19505,44,19510,54
2017-01-04 11:22:00,11:22:29,11:22:37,36190,36197,19505.0,47,19510.0,50,19505.0,19510.0,19505.0,19510.0,5,1,19505,49,19510,44
2017-01-04 11:23:00,11:23:03,11:23:16,36209,36224,19505.0,44,19510.0,52,19505.0,19510.0,19505.0,19510.0,9,5,19505,48,19510,39
2017-01-04 11:24:00,11:24:18,11:24:23,36252,36263,19505.0,42,19510.0,50,19510.0,19510.0,19510.0,19510.0,15,15,19510,11,19515,43
2017-01-04 11:25:00,11:25:01,11:25:58,36289,36348,19510.0,39,19515.0,52,19510.0,19510.0,19505.0,19505.0,34,-34,19505,28,19510,59
2017-01-04 11:26:00,11:26:32,11:26:39,36360,36369,19505.0,15,19510.0,66,19510.0,19510.0,19505.0,19505.0,3,1,19505,18,19510,57
2017-01-04 11:27:00,11:27:48,11:27:51,36390,36395,19505.0,34,19510.0,56,19510.0,19510.0,19510.0,19510.0,2,2,19505,34,19510,52
2017-01-04 11:28:00,11:28:00,11:28:58,36401,36454,19505.0,33,19510.0,55,19505.0,19510.0,19505.0,19505.0,39,-1,19505,3,19510,50
2017-01-04 11:29:00,11:29:01,11:29:56,36461,36513,19505.0,4,19510.0,52,19505.0,19505.0,19505.0,19505.0,12,6,19505,30,19510,54
2017-01-04 11:30:00,11:30:00,11:30:55,36519,36781,19505.0,22,19510.0,48,19505.0,19505.0,19490.0,19495.0,224,-104,19490,52,19495,4
2017-01-04 11:31:00,11:31:00,11:31:51,36790,37012,19490.0,53,19495.0,12,19490.0,19490.0,19480.0,19490.0,245,-123,19485,17,19490,70
2017-01-04 11:32:00,11:32:04,11:32:59,37022,37174,19485.0,17,19490.0,74,19485.0,19495.0,19485.0,19495.0,146,138,19490,59,19495,10
2017-01-04 11:33:00,11:33:00,11:33:53,37181,37249,19490.0,53,19495.0,20,19490.0,19500.0,19490.0,19500.0,13,11,19495,40,19500,80
2017-01-04 11:34:00,11:34:22,11:34:43,37273,37359,19495.0,31,19500.0,89,19495.0,19500.0,19495.0,19500.0,69,-9,19495,19,19500,80
2017-01-04 11:35:00,11:35:03,11:35:59,37371,37525,19495.0,39,19500.0,60,19500.0,19510.0,19500.0,19505.0,134,32,19500,65,19505,29
2017-01-04 11:36:00,11:36:04,11:36:59,37528,37621,19500.0,63,19505.0,30,19505.0,19505.0,19505.0,19505.0,44,20,19505,16,19510,56
2017-01-04 11:37:00,11:37:01,11:37:58,37624,37681,19505.0,16,19510.0,56,19505.0,19505.0,19500.0,19505.0,25,-15,19500,79,19505,34
2017-01-04 11:38:00,11:38:00,11:38:52,37685,37779,19500.0,79,19505.0,33,19500.0,19505.0,19500.0,19505.0,63,11,19505,45,19510,55
2017-01-04 11:39:00,11:39:36,11:39:49,37806,37869,19505.0,51,19510.0,63,19510.0,19510.0,19505.0,19505.0,121,47,19500,38,19505,42
2017-01-04 11:40:00,11:40:09,11:40:58,37895,38027,19500.0,129,19505.0,19,19505.0,19505.0,19505.0,19505.0,135,109,19500,132,19510,77
2017-01-04 11:41:00,11:41:05,11:41:59,38033,38153,19500.0,134,19505.0,4,19505.0,19510.0,19505.0,19505.0,133,-57,19500,124,19505,17
2017-01-04 11:42:00,11:42:10,11:42:57,38167,38278,19500.0,126,19505.0,23,19505.0,19510.0,19505.0,19505.0,165,-19,19505,40,19510,79
2017-01-04 11:43:00,11:43:00,11:43:58,38288,38462,19505.0,21,19510.0,76,19505.0,19515.0,19505.0,19515.0,155,135,19510,50,19515,37
2017-01-04 11:44:00,11:44:01,11:44:59,38465,38742,19510.0,50,19515.0,37,19515.0,19525.0,19515.0,19520.0,268,42,19515,45,19520,41
2017-01-04 11:45:00,11:45:00,11:45:50,38746,38959,19515.0,45,19520.0,35,19520.0,19525.0,19520.0,19520.0,213,-39,19515,64,19525,56
2017-01-04 11:46:00,11:46:04,11:46:59,38977,39088,19520.0,15,19525.0,58,19525.0,19525.0,19515.0,19515.0,62,-31,19510,59,19515,7
2017-01-04 11:47:00,11:47:10,11:47:57,39108,39275,19510.0,59,19515.0,51,19515.0,19525.0,19515.0,19520.0,182,150,19520,4,19520,8
2017-01-04 11:48:00,11:48:00,11:48:53,39278,39419,19520.0,5,19525.0,57,19520.0,19520.0,19515.0,19520.0,75,-51,19515,4,19520,71
2017-01-04 11:49:00,11:49:02,11:49:58,39431,39595,19515.0,4,19520.0,80,19515.0,19525.0,19515.0,19520.0,142,84,19520,13,19525,54
2017-01-04 11:50:00,11:50:11,11:50:58,39613,39683,19520.0,37,19525.0,50,19525.0,19525.0,19520.0,19525.0,14,4,19520,41,19525,43
2017-01-04 11:51:00,11:51:03,11:51:59,39688,39881,19520.0,43,19525.0,40,19525.0,19525.0,19515.0,19515.0,206,-24,19510,74,19515,1
2017-01-04 11:52:00,11:52:00,11:52:56,39884,40090,19510.0,74,19515.0,1,19515.0,19515.0,19510.0,19515.0,154,-80,19510,46,19515,68
2017-01-04 11:53:00,11:53:00,11:53:46,40098,40252,19510.0,51,19515.0,44,19515.0,19520.0,19510.0,19515.0,132,30,19510,68,19515,10
2017-01-04 11:54:00,11:54:00,11:54:58,40270,40450,19510.0,68,19515.0,33,19515.0,19520.0,19515.0,19515.0,203,13,19510,75,19515,1
2017-01-04 11:55:00,11:55:02,11:55:59,40455,40557,19510.0,77,19515.0,2,19515.0,19515.0,19510.0,19510.0,57,-39,19505,90,19510,43
2017-01-04 11:56:00,11:56:04,11:56:54,40565,40668,19505.0,91,19510.0,53,19505.0,19510.0,19505.0,19510.0,139,-67,19505,70,19510,104
2017-01-04 11:57:00,11:57:02,11:57:59,40675,40819,19505.0,68,19510.0,106,19505.0,19510.0,19505.0,19505.0,181,-106,19500,129,19505,21
2017-01-04 11:58:00,11:58:00,11:58:54,40824,40892,19500.0,129,19505.0,21,19500.0,19510.0,19500.0,19510.0,31,29,19505,52,19510,50
2017-01-04 11:59:00,11:59:04,11:59:56,40900,41075,19505.0,52,19510.0,44,19510.0,19520.0,19510.0,19520.0,192,159,19515,106,19520,44
2017-01-04 12:00:00,12:00:04,12:00:53,41082,41230,19515.0,107,19520.0,41,19520.0,19525.0,19520.0,19520.0,182,40,19515,68,19520,5
2017-01-04 12:01:00,12:01:03,12:01:58,41245,41410,19515.0,46,19520.0,13,19515.0,19520.0,19510.0,19520.0,202,-18,19520,52,19525,62
2017-01-04 12:02:00,12:02:06,12:02:59,41421,41550,19520.0,51,19525.0,81,19525.0,19525.0,19520.0,19525.0,126,-2,19520,89,19525,14
2017-01-04 12:03:00,12:03:00,12:03:51,41553,41703,19520.0,89,19525.0,14,19520.0,19530.0,19520.0,19525.0,105,-19,19520,78,19530,62
2017-01-04 12:04:00,12:04:02,12:04:58,41721,41842,19520.0,48,19525.0,28,19525.0,19525.0,19525.0,19525.0,56,42,19520,42,19525,45
2017-01-04 12:05:00,12:05:03,12:05:54,41848,41950,19520.0,43,19525.0,47,19520.0,19520.0,19520.0,19520.0,56,-8,19515,78,19520,8
2017-01-04 12:06:00,12:06:00,12:06:52,41964,42115,19515.0,68,19520.0,53,19520.0,19525.0,19520.0,19525.0,144,59,19520,42,19525,34
2017-01-04 12:07:00,12:07:04,12:07:57,42132,42217,19520.0,45,19525.0,39,19525.0,19530.0,19525.0,19525.0,46,26,19520,74,19525,62
2017-01-04 12:08:00,12:08:00,12:08:56,42221,42342,19520.0,75,19525.0,62,19520.0,19530.0,19520.0,19525.0,117,57,19520,85,19525,15
2017-01-04 12:09:00,12:09:02,12:09:57,42353,42496,19520.0,66,19525.0,36,19525.0,19535.0,19525.0,19535.0,101,99,19530,50,19535,9
2017-01-04 12:10:00,12:10:02,12:10:59,42508,42651,19530.0,90,19535.0,14,19535.0,19540.0,19535.0,19540.0,74,16,19535,59,19540,45
2017-01-04 12:11:00,12:11:02,12:11:56,42658,42799,19535.0,55,19540.0,49,19540.0,19540.0,19530.0,19530.0,109,-65,19530,11,19535,90
2017-01-04 12:12:00,12:12:02,12:12:59,42810,43009,19530.0,36,19535.0,100,19530.0,19540.0,19530.0,19530.0,197,-43,19530,4,19535,126
2017-01-04 12:13:00,12:13:00,12:13:58,43012,43199,19530.0,4,19535.0,126,19530.0,19540.0,19530.0,19535.0,223,24,19535,16,19540,61
2017-01-04 12:14:00,12:14:00,12:14:53,43203,43270,19535.0,17,19540.0,61,19535.0,19535.0,19530.0,19535.0,13,1,19530,119,19535,14
2017-01-04 12:15:00,12:15:00,12:15:58,43280,43385,19530.0,119,19535.0,35,19535.0,19540.0,19535.0,19540.0,57,1,19535,28,19540,61
2017-01-04 12:16:00,12:16:10,12:16:52,43396,43507,19535.0,29,19540.0,60,19540.0,19545.0,19540.0,19545.0,94,62,19540,125,19545,63
2017-01-04 12:17:00,12:17:03,12:17:59,43519,43651,19540.0,128,19545.0,70,19545.0,19545.0,19540.0,19540.0,156,-76,19540,8,19545,85
2017-01-04 12:18:00,12:18:00,12:18:58,43655,43815,19540.0,28,19545.0,85,19540.0,19545.0,19540.0,19545.0,159,97,19540,88,19545,91
2017-01-04 12:19:00,12:19:00,12:19:52,43818,43918,19540.0,88,19545.0,91,19545.0,19545.0,19545.0,19545.0,42,42,19540,121,19545,45
2017-01-04 12:20:00,12:20:05,12:20:57,43931,43989,19540.0,123,19545.0,57,19545.0,19545.0,19540.0,19545.0,35,-13,19540,74,19545,51
2017-01-04 12:21:00,12:21:03,12:21:50,44000,44151,19540.0,107,19545.0,40,19545.0,19550.0,19545.0,19545.0,142,84,19540,59,19545,52
2017-01-04 12:22:00,12:22:02,12:22:54,44166,44303,19540.0,88,19545.0,63,19545.0,19555.0,19545.0,19555.0,155,147,19550,35,19555,94
2017-01-04 12:23:00,12:23:00,12:23:59,44314,44485,19550.0,44,19555.0,86,19550.0,19560.0,19550.0,19555.0,242,86,19550,77,19555,33
2017-01-04 12:24:00,12:24:01,12:24:55,44489,44659,19550.0,77,19555.0,32,19555.0,19555.0,19540.0,19540.0,266,-174,19540,122,19545,78
2017-01-04 12:25:00,12:25:02,12:25:49,44676,44927,19540.0,61,19545.0,115,19540.0,19540.0,19535.0,19535.0,310,34,19530,75,19540,104
2017-01-04 12:26:00,12:26:00,12:26:48,44936,45017,19530.0,76,19535.0,59,19535.0,19540.0,19530.0,19540.0,63,61,19535,17,19540,102
2017-01-04 12:27:00,12:27:01,12:27:43,45032,45085,19535.0,25,19540.0,103,19540.0,19540.0,19535.0,19535.0,27,-19,19530,71,19535,3
2017-01-04 12:28:00,12:28:00,12:28:58,45103,45247,19530.0,66,19535.0,40,19530.0,19545.0,19530.0,19545.0,131,129,19540,33,19545,83
2017-01-04 12:29:00,12:29:10,12:29:53,45261,45326,19540.0,34,19545.0,86,19540.0,19545.0,19540.0,19540.0,62,6,19535,75,19540,9
2017-01-04 12:30:00,12:30:03,12:30:46,45339,45456,19535.0,76,19540.0,20,19540.0,19545.0,19540.0,19540.0,88,-3,19535,73,19545,88
2017-01-04 12:31:00,12:31:05,12:31:59,45472,45579,19540.0,5,19545.0,102,19540.0,19545.0,19540.0,19540.0,66,6,19540,11,19545,93
2017-01-04 12:32:00,12:32:00,12:32:52,45581,45625,19540.0,11,19545.0,94,19545.0,19545.0,19545.0,19545.0,11,11,19540,53,19545,69
2017-01-04 12:33:00,12:33:00,12:33:57,45635,45742,19540.0,59,19545.0,67,19540.0,19550.0,19540.0,19545.0,74,38,19540,88,19545,18
2017-01-04 12:34:00,12:34:04,12:34:58,45757,45902,19540.0,50,19545.0,89,19540.0,19545.0,19535.0,19535.0,128,-124,19535,34,19540,71
2017-01-04 12:35:00,12:35:02,12:35:54,45912,46008,19535.0,39,19540.0,84,19540.0,19550.0,19535.0,19550.0,61,57,19545,24,19550,92
2017-01-04 12:36:00,12:36:00,12:36:59,46024,46095,19545.0,47,19550.0,89,19545.0,19545.0,19545.0,19545.0,49,-33,19540,70,19545,53
2017-01-04 12:37:00,12:37:06,12:37:51,46101,46205,19540.0,72,19545.0,53,19540.0,19545.0,19540.0,19540.0,84,-72,19535,36,19540,44
2017-01-04 12:38:00,12:38:00,12:38:56,46219,46333,19535.0,28,19540.0,74,19535.0,19540.0,19535.0,19540.0,59,-33,19535,77,19540,66
2017-01-04 12:39:00,12:39:09,12:39:48,46346,46376,19535.0,66,19540.0,79,19540.0,19540.0,19535.0,19540.0,39,-21,19535,33,19540,83
2017-01-04 12:40:00,12:40:01,12:40:53,46381,46472,19535.0,36,19540.0,83,19540.0,19540.0,19530.0,19535.0,64,-12,19530,81,19535,11
2017-01-04 12:41:00,12:41:04,12:41:55,46477,46576,19530.0,83,19535.0,12,19535.0,19540.0,19535.0,19535.0,48,-10,19530,84,19535,6
2017-01-04 12:42:00,12:42:07,12:42:50,46592,46662,19530.0,81,19535.0,37,19535.0,19535.0,19535.0,19535.0,44,42,19530,87,19535,10
2017-01-04 12:43:00,12:43:00,12:43:55,46673,46793,19530.0,88,19535.0,22,19530.0,19540.0,19530.0,19535.0,122,43,19530,76,19535,59
2017-01-04 12:44:00,12:44:08,12:44:47,46799,46825,19530.0,77,19535.0,66,19535.0,19535.0,19535.0,19535.0,8,8,19530,55,19535,59
2017-01-04 12:45:00,12:45:00,12:45:52,46835,46991,19530.0,56,19535.0,59,19535.0,19540.0,19530.0,19535.0,178,82,19530,70,19535,30
2017-01-04 12:46:00,12:46:05,12:46:57,47005,47067,19530.0,72,19535.0,30,19535.0,19535.0,19530.0,19535.0,27,25,19530,82,19535,23
2017-01-04 12:47:00,12:47:04,12:47:59,47074,47258,19530.0,90,19535.0,23,19535.0,19550.0,19535.0,19550.0,209,129,19545,52,19550,91
2017-01-04 12:48:00,12:48:00,12:48:54,47261,47308,19545.0,53,19550.0,92,19545.0,19550.0,19545.0,19550.0,13,11,19545,45,19550,88
2017-01-04 12:49:00,12:49:07,12:49:59,47319,47386,19545.0,47,19550.0,91,19550.0,19550.0,19545.0,19550.0,18,12,19545,48,19550,74
2017-01-04 12:50:00,12:50:12,12:50:51,47402,47460,19545.0,46,19550.0,76,19550.0,19550.0,19545.0,19545.0,13,5,19545,46,19550,73
2017-01-04 12:51:00,12:51:04,12:51:58,47473,47546,19545.0,55,19550.0,74,19550.0,19550.0,19545.0,19545.0,14,10,19545,47,19550,64
2017-01-04 12:52:00,12:52:01,12:52:52,47553,47630,19545.0,51,19550.0,63,19550.0,19550.0,19545.0,19550.0,63,59,19550,38,19555,41
2017-01-04 12:53:00,12:53:00,12:53:58,47644,47753,19550.0,56,19555.0,71,19550.0,19560.0,19550.0,19555.0,77,54,19550,41,19555,72
2017-01-04 12:54:00,12:54:05,12:54:58,47763,47898,19550.0,42,19555.0,81,19550.0,19550.0,19545.0,19550.0,114,-78,19545,15,19550,79
2017-01-04 12:55:00,12:55:11,12:55:51,47911,48007,19545.0,23,19550.0,82,19550.0,19555.0,19550.0,19550.0,86,42,19550,17,19555,74
2017-01-04 12:56:00,12:56:00,12:56:55,48020,48156,19550.0,48,19555.0,71,19550.0,19555.0,19550.0,19555.0,122,-40,19550,43,19555,41
2017-01-04 12:57:00,12:57:00,12:57:47,48162,48267,19550.0,46,19555.0,40,19550.0,19560.0,19550.0,19555.0,63,27,19550,74,19555,47
2017-01-04 12:58:00,12:58:00,12:58:52,48285,48336,19550.0,81,19555.0,47,19555.0,19555.0,19550.0,19555.0,17,15,19550,91,19555,35
2017-01-04 12:59:00,12:59:05,12:59:47,48344,48429,19550.0,91,19555.0,38,19555.0,19560.0,19555.0,19555.0,80,4,19555,20,19560,64
2017-01-04 13:00:00,13:00:00,13:00:44,48451,48518,19555.0,10,19560.0,76,19555.0,19555.0,19555.0,19555.0,55,-45,19555,47,19560,78
2017-01-04 13:01:00,13:01:16,13:01:16,48542,48542,19555.0,50,19560.0,76,19555.0,19555.0,19555.0,19555.0,1,-1,19555,49,19560,75
2017-01-04 13:02:00,13:02:04,13:02:50,48570,48619,19555.0,73,19560.0,52,19560.0,19560.0,19555.0,19560.0,11,-3,19555,69,19560,52
2017-01-04 13:03:00,13:03:00,13:03:59,48626,48796,19555.0,68,19560.0,50,19555.0,19570.0,19555.0,19565.0,234,132,19560,73,19570,95
2017-01-04 13:04:00,13:04:01,13:04:31,48798,48914,19560.0,79,19570.0,95,19565.0,19565.0,19560.0,19560.0,129,-41,19560,21,19565,91
2017-01-04 13:05:00,13:05:13,13:05:35,48951,49075,19560.0,54,19565.0,76,19560.0,19565.0,19560.0,19565.0,148,17,19560,30,19565,49
2017-01-04 13:06:00,13:06:20,13:06:47,49106,49217,19560.0,132,19565.0,20,19565.0,19570.0,19565.0,19570.0,187,185,19565,91,19570,69
2017-01-04 13:07:00,13:07:04,13:07:35,49229,49243,19565.0,100,19570.0,79,19570.0,19570.0,19570.0,19570.0,4,4,19565,104,19570,81
2017-01-04 13:08:00,13:08:00,13:08:33,49255,49365,19565.0,122,19570.0,90,19565.0,19570.0,19565.0,19565.0,189,-39,19560,88,19565,44
2017-01-04 13:09:00,13:09:06,13:09:54,49384,49532,19560.0,81,19565.0,54,19565.0,19565.0,19550.0,19550.0,240,-120,19550,96,19555,15
2017-01-04 13:10:00,13:10:40,13:10:52,49581,49643,19550.0,108,19555.0,29,19555.0,19555.0,19555.0,19555.0,57,31,19550,96,19555,26
2017-01-04 13:11:00,13:11:09,13:11:48,49660,49715,19550.0,102,19555.0,15,19555.0,19555.0,19550.0,19555.0,57,-27,19550,79,19555,27
2017-01-04 13:12:00,13:12:05,13:12:26,49729,49810,19550.0,68,19555.0,57,19555.0,19555.0,19555.0,19555.0,96,88,19550,90,19555,9
2017-01-04 13:13:00,13:13:00,13:13:56,49831,49965,19550.0,100,19555.0,26,19550.0,19555.0,19550.0,19555.0,154,105,19550,117,19555,4
2017-01-04 13:14:00,13:14:00,13:14:48,49972,50199,19550.0,118,19555.0,42,19555.0,19565.0,19555.0,19560.0,304,168,19560,37,19565,80
2017-01-04 13:15:00,13:15:02,13:15:54,50210,50281,19560.0,74,19565.0,80,19560.0,19570.0,19560.0,19565.0,60,44,19565,53,19570,81
2017-01-04 13:16:00,13:16:00,13:16:35,50287,50405,19565.0,57,19570.0,80,19570.0,19570.0,19565.0,19570.0,153,-47,19565,36,19570,76
2017-01-04 13:17:00,13:17:21,13:17:59,50444,50515,19565.0,64,19570.0,84,19570.0,19570.0,19565.0,19565.0,88,-48,19560,144,19570,76
2017-01-04 13:18:00,13:18:00,13:18:57,50516,50600,19565.0,4,19570.0,77,19565.0,19565.0,19560.0,19565.0,52,-14,19565,58,19570,78
2017-01-04 13:19:00,13:19:05,13:19:39,50605,50659,19565.0,58,19570.0,78,19565.0,19565.0,19560.0,19560.0,82,-82,19560,135,19565,67
2017-01-04 13:20:00,13:20:07,13:20:45,50668,50715,19560.0,144,19565.0,66,19560.0,19565.0,19560.0,19560.0,42,32,19560,66,19565,53
2017-01-04 13:21:00,13:21:00,13:21:57,50723,50935,19560.0,66,19565.0,52,19565.0,19575.0,19560.0,19575.0,265,149,19570,50,19575,49
2017-01-04 13:22:00,13:22:00,13:22:56,50943,51084,19570.0,87,19575.0,54,19575.0,19575.0,19570.0,19575.0,194,6,19570,100,19575,20
2017-01-04 13:23:00,13:23:00,13:23:29,51088,51166,19570.0,100,19575.0,22,19570.0,19575.0,19570.0,19575.0,97,43,19570,104,19575,7
2017-01-04 13:24:00,13:24:00,13:24:59,51185,51282,19570.0,134,19575.0,28,19575.0,19575.0,19570.0,19575.0,106,68,19575,44,19580,133
2017-01-04 13:25:00,13:25:02,13:25:58,51286,51371,19575.0,45,19580.0,133,19575.0,19575.0,19570.0,19575.0,150,29,19575,1,19580,138
2017-01-04 13:26:00,13:26:00,13:26:44,51374,51474,19575.0,1,19580.0,138,19575.0,19580.0,19575.0,19575.0,150,26,19570,129,19575,7
2017-01-04 13:27:00,13:27:00,13:27:23,51488,51517,19570.0,131,19575.0,22,19570.0,19575.0,19570.0,19570.0,11,-7,19570,65,19575,101
2017-01-04 13:28:00,13:28:00,13:28:57,51555,51678,19570.0,117,19575.0,62,19570.0,19580.0,19570.0,19575.0,121,67,19575,7,19575,4
2017-01-04 13:29:00,13:29:01,13:29:55,51682,51787,19570.0,144,19575.0,4,19575.0,19575.0,19570.0,19575.0,87,45,19570,133,19575,29
2017-01-04 13:30:00,13:30:02,13:30:41,51800,51942,19570.0,137,19575.0,33,19570.0,19575.0,19570.0,19570.0,141,9,19570,126,19575,16
2017-01-04 13:31:00,13:31:01,13:31:59,51956,52047,19570.0,129,19575.0,28,19570.0,19575.0,19570.0,19575.0,125,79,19570,79,19575,68
2017-01-04 13:32:00,13:32:12,13:32:57,52056,52134,19570.0,80,19575.0,75,19570.0,19580.0,19570.0,19580.0,74,57,19575,45,19580,121
2017-01-04 13:33:00,13:33:00,13:33:58,52139,52187,19575.0,45,19580.0,116,19575.0,19580.0,19575.0,19575.0,10,-4,19575,27,19580,131
2017-01-04 13:34:00,13:34:01,13:34:57,52192,52309,19575.0,25,19580.0,131,19575.0,19575.0,19570.0,19575.0,107,-11,19575,39,19580,124
2017-01-04 13:35:00,13:35:00,13:35:59,52311,52461,19575.0,39,19580.0,121,19575.0,19580.0,19570.0,19580.0,152,80,19575,124,19580,8
2017-01-04 13:36:00,13:36:00,13:36:59,52464,52677,19575.0,124,19580.0,8,19580.0,19585.0,19580.0,19585.0,256,167,19585,1,19590,120
2017-01-04 13:37:00,13:37:00,13:37:58,52682,52922,19585.0,8,19590.0,120,19585.0,19585.0,19575.0,19575.0,225,-109,19570,125,19575,57
2017-01-04 13:38:00,13:38:00,13:38:59,52924,53050,19570.0,128,19575.0,57,19570.0,19575.0,19570.0,19575.0,109,-51,19570,25,19575,130
2017-01-04 13:39:00,13:39:07,13:39:58,53060,53204,19570.0,16,19575.0,133,19570.0,19575.0,19570.0,19570.0,139,107,19570,129,19575,77
2017-01-04 13:40:00,13:40:00,13:40:53,53206,53441,19570.0,129,19575.0,73,19570.0,19575.0,19565.0,19570.0,325,-250,19570,21,19575,121
2017-01-04 13:41:00,13:41:03,13:41:53,53454,53572,19570.0,44,19575.0,122,19570.0,19575.0,19570.0,19570.0,66,30,19570,23,19575,114
2017-01-04 13:42:00,13:42:04,13:42:56,53581,53757,19570.0,27,19575.0,118,19570.0,19580.0,19570.0,19580.0,172,106,19575,48,19580,105
2017-01-04 13:43:00,13:43:00,13:43:59,53760,53891,19575.0,48,19580.0,105,19575.0,19575.0,19570.0,19575.0,134,-27,19575,27,19580,130
2017-01-04 13:44:00,13:44:13,13:44:59,53907,54003,19575.0,31,19580.0,133,19575.0,19580.0,19575.0,19575.0,83,-37,19575,51,19580,113
2017-01-04 13:45:00,13:45:01,13:45:56,54010,54164,19575.0,62,19580.0,112,19575.0,19580.0,19575.0,19580.0,207,5,19575,43,19580,99
2017-01-04 13:46:00,13:46:01,13:46:57,54170,54223,19575.0,42,19580.0,102,19575.0,19580.0,19575.0,19575.0,18,-14,19575,87,19580,94
2017-01-04 13:47:00,13:47:05,13:47:58,54228,54387,19575.0,95,19580.0,119,19575.0,19585.0,19575.0,19580.0,150,74,19580,30,19585,156
2017-01-04 13:48:00,13:48:00,13:48:59,54390,54516,19580.0,32,19585.0,154,19580.0,19580.0,19570.0,19570.0,147,-145,19570,183,19575,82
2017-01-04 13:49:00,13:49:04,13:49:59,54519,54601,19570.0,185,19575.0,79,19570.0,19575.0,19570.0,19570.0,87,-55,19565,85,19570,23
2017-01-04 13:50:00,13:50:00,13:50:55,54602,54815,19570.0,50,19575.0,209,19570.0,19575.0,19565.0,19565.0,316,30,19560,110,19565,17
2017-01-04 13:51:00,13:51:00,13:51:50,54822,54951,19560.0,112,19565.0,25,19565.0,19565.0,19565.0,19565.0,109,63,19565,8,19570,165
2017-01-04 13:52:00,13:52:01,13:52:52,54965,55027,19565.0,22,19570.0,165,19565.0,19565.0,19565.0,19565.0,39,-39,19565,14,19570,170
2017-01-04 13:53:00,13:53:00,13:53:53,55035,55252,19565.0,16,19570.0,168,19565.0,19575.0,19560.0,19570.0,289,-48,19570,12,19575,130
2017-01-04 13:54:00,13:54:01,13:54:59,55267,55466,19570.0,92,19575.0,122,19575.0,19580.0,19575.0,19580.0,213,55,19575,87,19580,39
2017-01-04 13:55:00,13:55:00,13:55:56,55469,55699,19575.0,87,19580.0,39,19580.0,19585.0,19580.0,19580.0,215,3,19575,173,19580,2
2017-01-04 13:56:00,13:56:05,13:56:59,55723,55877,19575.0,104,19580.0,168,19575.0,19575.0,19570.0,19575.0,186,-128,19570,114,19575,64
2017-01-04 13:57:00,13:57:00,13:57:55,55879,56126,19570.0,122,19575.0,64,19570.0,19580.0,19570.0,19580.0,270,63,19575,115,19580,128
2017-01-04 13:58:00,13:58:00,13:58:59,56135,56361,19575.0,102,19580.0,128,19575.0,19585.0,19575.0,19585.0,194,148,19580,119,19585,138
2017-01-04 13:59:00,13:59:00,13:59:59,56362,56853,19580.0,133,19585.0,137,19585.0,19590.0,19580.0,19580.0,812,128,19580,47,19585,45
2017-01-04 14:00:00,14:00:00,14:00:56,56854,57557,19580.0,88,19585.0,115,19580.0,19600.0,19575.0,19595.0,1598,572,19595,138,19600,113
2017-01-04 14:01:00,14:01:00,14:01:59,57566,57999,19595.0,140,19600.0,135,19600.0,19605.0,19595.0,19605.0,796,518,19600,224,19605,138
2017-01-04 14:02:00,14:02:00,14:02:57,58001,58259,19600.0,219,19605.0,138,19605.0,19610.0,19600.0,19610.0,345,325,19605,143,19610,175
2017-01-04 14:03:00,14:03:00,14:03:58,58264,58755,19605.0,148,19610.0,169,19610.0,19625.0,19605.0,19615.0,957,250,19615,15,19620,175
2017-01-04 14:04:00,14:04:00,14:04:59,58761,59070,19615.0,28,19620.0,174,19615.0,19620.0,19610.0,19615.0,434,184,19615,74,19620,147
2017-01-04 14:05:00,14:05:02,14:05:58,59077,59551,19615.0,74,19620.0,147,19615.0,19630.0,19615.0,19625.0,742,351,19625,157,19630,98
2017-01-04 14:06:00,14:06:00,14:06:52,59557,59742,19625.0,74,19630.0,107,19625.0,19630.0,19620.0,19625.0,253,47,19625,73,19630,177
2017-01-04 14:07:00,14:07:09,14:07:59,59762,60055,19625.0,90,19630.0,178,19630.0,19630.0,19625.0,19625.0,446,40,19625,51,19630,152
2017-01-04 14:08:00,14:08:00,14:08:55,60058,60377,19625.0,51,19630.0,152,19625.0,19625.0,19610.0,19620.0,981,-580,19620,31,19625,152
2017-01-04 14:09:00,14:09:00,14:09:59,60390,60625,19620.0,149,19625.0,62,19620.0,19630.0,19615.0,19625.0,321,-75,19625,13,19630,40
