,ST,ET,sidx,eidx,bB,bBS,bA,bAS,O,H,L,C,V,OF,eB,eBS,eA,eAS
2017-02-01 08:00:00,08:00:00,08:00:56,2787,3426,18925.0,24,18930.0,46,18925.0,18935.0,18905.0,18905.0,781,52,18905,40,18910,16
2017-02-01 08:01:00,08:01:00,08:01:57,3433,3685,18905.0,51,18910.0,13,18910.0,18930.0,18910.0,18930.0,249,107,18925,76,18930,17
2017-02-01 08:02:00,08:02:00,08:02:56,3692,4032,18925.0,79,18930.0,16,18925.0,18930.0,18915.0,18915.0,496,-172,18915,33,18920,72
2017-02-01 08:03:00,08:03:00,08:03:56,4038,4466,18915.0,36,18920.0,71,18920.0,18925.0,18905.0,18905.0,563,-69,18905,45,18910,38
2017-02-01 08:04:00,08:04:00,08:04:58,4474,4786,18905.0,40,18910.0,52,18910.0,18910.0,18900.0,18910.0,336,59,18910,71,18915,123
2017-02-01 08:05:00,08:05:08,08:05:59,4792,5005,18910.0,69,18915.0,127,18910.0,18920.0,18910.0,18915.0,254,218,18915,20,18920,79
2017-02-01 08:06:00,08:06:00,08:06:56,5008,5351,18915.0,20,18920.0,79,18920.0,18930.0,18915.0,18925.0,383,-109,18920,55,18925,12
2017-02-01 08:07:00,08:07:04,08:07:53,5364,5733,18920.0,53,18925.0,37,18925.0,18925.0,18910.0,18910.0,426,-246,18905,67,18910,6
2017-02-01 08:08:00,08:08:00,08:08:59,5746,6264,18905.0,63,18910.0,47,18910.0,18935.0,18910.0,18920.0,720,386,18920,27,18925,89
2017-02-01 08:09:00,08:09:00,08:09:59,6268,6548,18920.0,28,18925.0,89,18920.0,18935.0,18920.0,18930.0,390,180,18925,20,18930,61
2017-02-01 08:10:00,08:10:04,08:10:57,6557,6803,18925.0,29,18930.0,67,18925.0,18935.0,18920.0,18925.0,262,14,18920,36,18925,35
2017-02-01 08:11:00,08:11:01,08:11:58,6812,7125,18920.0,34,18925.0,79,18925.0,18930.0,18915.0,18920.0,376,-74,18915,25,18920,43
2017-02-01 08:12:00,08:12:02,08:12:59,7138,7481,18915.0,40,18920.0,28,18920.0,18930.0,18915.0,18925.0,445,198,18925,24,18930,44
2017-02-01 08:13:00,08:13:01,08:13:59,7486,7746,18925.0,35,18930.0,44,18925.0,18930.0,18920.0,18925.0,250,-182,18920,40,18925,40
2017-02-01 08:14:00,08:14:02,08:14:57,7753,7938,18920.0,43,18925.0,39,18925.0,18930.0,18925.0,18925.0,147,-65,18920,39,18925,51
2017-02-01 08:15:00,08:15:11,08:15:59,7964,8067,18920.0,42,18925.0,60,18925.0,18930.0,18925.0,18925.0,79,47,18925,18,18930,61
2017-02-01 08:16:00,08:16:12,08:16:59,8076,8230,18925.0,40,18930.0,52,18925.0,18930.0,18920.0,18920.0,119,-15,18920,31,18925,35
2017-02-01 08:17:00,08:17:04,08:17:59,8241,8601,18920.0,34,18925.0,34,18920.0,18930.0,18910.0,18920.0,446,62,18920,31,18925,50
2017-02-01 08:18:00,08:18:00,08:18:59,8604,8768,18920.0,31,18925.0,50,18920.0,18920.0,18915.0,18915.0,174,-30,18910,66,18915,10
2017-02-01 08:19:00,08:19:00,08:19:59,8771,9030,18910.0,66,18915.0,10,18915.0,18925.0,18915.0,18920.0,302,153,18920,23,18925,38
2017-02-01 08:20:00,08:20:00,08:20:57,9035,9546,18920.0,29,18925.0,37,18920.0,18960.0,18920.0,18960.0,677,560,18955,29,18960,19
2017-02-01 08:21:00,08:21:00,08:21:59,9556,10070,18955.0,61,18960.0,16,18960.0,18970.0,18950.0,18970.0,658,-116,18965,37,18970,40
2017-02-01 08:22:00,08:22:00,08:22:57,10071,10452,18970.0,31,18975.0,49,18970.0,18975.0,18965.0,18970.0,358,-62,18965,35,18970,39
2017-02-01 08:23:00,08:23:01,08:23:59,10462,10666,18965.0,41,18970.0,42,18965.0,18965.0,18960.0,18965.0,196,-21,18960,38,18965,6
2017-02-01 08:24:00,08:24:02,08:24:57,10674,10856,18960.0,36,18965.0,29,18965.0,18990.0,18965.0,18990.0,202,182,18985,50,18990,33
2017-02-01 08:25:00,08:25:06,08:25:57,10874,11110,18985.0,49,18990.0,38,18990.0,18990.0,18980.0,18985.0,245,-127,18980,45,18985,28
2017-02-01 08:26:00,08:26:07,08:26:58,11130,11346,18980.0,43,18985.0,33,18985.0,18985.0,18970.0,18970.0,202,-170,18970,30,18975,49
2017-02-01 08:27:00,08:27:01,08:27:58,11354,11514,18970.0,38,18975.0,49,18975.0,18975.0,18965.0,18965.0,155,-9,18965,42,18970,33
2017-02-01 08:28:00,08:28:07,08:28:58,11532,11661,18965.0,58,18970.0,5,18970.0,18970.0,18965.0,18970.0,79,5,18965,48,18970,44
2017-02-01 08:29:00,08:29:05,08:29:58,11672,11791,18965.0,42,18970.0,56,18965.0,18970.0,18965.0,18970.0,99,-92,18965,21,18970,42
2017-02-01 08:30:00,08:30:12,08:30:58,11811,11910,18965.0,18,18970.0,50,18970.0,18970.0,18965.0,18965.0,72,56,18965,27,18970,36
2017-02-01 08:31:00,08:31:30,08:31:59,11939,11989,18965.0,37,18970.0,42,18965.0,18965.0,18965.0,18965.0,51,-51,18965,1,18970,46
2017-02-01 08:32:00,08:32:00,08:32:55,11992,12131,18965.0,1,18970.0,46,18965.0,18965.0,18960.0,18965.0,201,26,18965,24,18970,38
2017-02-01 08:33:00,08:33:02,08:33:37,12142,12201,18965.0,28,18970.0,39,18970.0,18970.0,18965.0,18970.0,34,16,18965,35,18970,33
2017-02-01 08:34:00,08:34:04,08:34:47,12226,12354,18965.0,41,18970.0,34,18965.0,18970.0,18965.0,18970.0,122,50,18965,40,18970,10
2017-02-01 08:35:00,08:35:01,08:35:55,12369,12623,18965.0,46,18970.0,19,18970.0,18970.0,18955.0,18960.0,279,-93,18955,34,18960,21
2017-02-01 08:36:00,08:36:03,08:36:49,12635,12840,18955.0,14,18960.0,32,18955.0,18960.0,18950.0,18955.0,197,-109,18955,38,18960,27
2017-02-01 08:37:00,08:37:13,08:37:52,12867,12906,18955.0,40,18960.0,44,18955.0,18955.0,18955.0,18955.0,20,-20,18955,23,18960,54
2017-02-01 08:38:00,08:38:00,08:38:56,12917,13143,18955.0,18,18960.0,54,18955.0,18965.0,18950.0,18965.0,253,67,18960,41,18970,36
2017-02-01 08:39:00,08:39:26,08:39:34,13177,13188,18965.0,31,18970.0,37,18965.0,18965.0,18965.0,18965.0,5,-5,18965,33,18970,25
2017-02-01 08:40:00,08:40:07,08:40:55,13209,13350,18965.0,17,18970.0,42,18965.0,18965.0,18960.0,18960.0,123,-62,18960,6,18965,33
2017-02-01 08:41:00,08:41:00,08:41:51,13360,13547,18960.0,29,18965.0,35,18960.0,18975.0,18960.0,18975.0,211,160,18970,32,18980,47
2017-02-01 08:42:00,08:42:00,08:42:57,13561,13716,18975.0,14,18980.0,50,18980.0,18990.0,18980.0,18985.0,116,17,18985,16,18990,28
2017-02-01 08:43:00,08:43:01,08:43:59,13721,14019,18985.0,21,18990.0,44,18990.0,19015.0,18985.0,19010.0,320,194,19005,40,19015,58
2017-02-01 08:44:00,08:44:02,08:44:59,14025,14337,19010.0,3,19015.0,58,19010.0,19015.0,19005.0,19005.0,297,-41,19005,10,19010,36
2017-02-01 08:45:00,08:45:13,08:45:42,14352,14413,19005.0,21,19010.0,35,19005.0,19010.0,19005.0,19005.0,26,-8,19000,41,19005,33
2017-02-01 08:46:00,08:46:01,08:46:53,14431,14578,19000.0,24,19005.0,34,19000.0,19005.0,19000.0,19005.0,136,2,19000,34,19005,28
2017-02-01 08:47:00,08:47:03,08:47:59,14593,14865,19000.0,35,19005.0,23,19005.0,19025.0,19005.0,19025.0,241,89,19020,21,19025,34
2017-02-01 08:48:00,08:48:09,08:48:54,14883,15047,19020.0,47,19025.0,17,19025.0,19025.0,19020.0,19025.0,138,-56,19020,25,19025,24
2017-02-01 08:49:00,08:49:07,08:49:45,15068,15217,19020.0,11,19025.0,35,19020.0,19020.0,19015.0,19015.0,136,-40,19010,42,19015,9
2017-02-01 08:50:00,08:50:02,08:50:59,15241,15466,19010.0,22,19015.0,34,19010.0,19020.0,19010.0,19020.0,212,90,19015,40,19025,41
2017-02-01 08:51:00,08:51:00,08:51:59,15469,15693,19015.0,40,19025.0,41,19015.0,19030.0,19015.0,19030.0,181,59,19030,15,19035,49
2017-02-01 08:52:00,08:52:09,08:52:53,15708,15806,19030.0,96,19035.0,36,19030.0,19030.0,19025.0,19025.0,109,-101,19025,22,19030,40
2017-02-01 08:53:00,08:53:10,08:53:57,15821,15944,19025.0,26,19030.0,40,19030.0,19030.0,19025.0,19025.0,74,-14,19025,21,19030,39
2017-02-01 08:54:00,08:54:20,08:54:59,15966,16078,19025.0,29,19030.0,65,19025.0,19030.0,19020.0,19025.0,101,-23,19025,10,19030,69
2017-02-01 08:55:00,08:55:00,08:55:58,16079,16262,19025.0,14,19030.0,72,19030.0,19030.0,19015.0,19015.0,172,-78,19010,41,19020,41
2017-02-01 08:56:00,08:56:00,08:56:57,16264,16424,19015.0,10,19020.0,41,19015.0,19025.0,19015.0,19020.0,115,-5,19020,23,19025,23
2017-02-01 08:57:00,08:57:03,08:57:42,16431,16511,19020.0,18,19025.0,32,19020.0,19020.0,19015.0,19020.0,41,-17,19015,80,19025,27
2017-02-01 08:58:00,08:58:07,08:58:59,16533,16622,19015.0,78,19020.0,7,19015.0,19020.0,19015.0,19020.0,54,-24,19015,66,19020,1
2017-02-01 08:59:00,08:59:08,08:59:54,16630,16724,19015.0,68,19020.0,3,19020.0,19020.0,19015.0,19015.0,107,-73,19015,24,19020,38
2017-02-01 09:00:00,09:00:05,09:00:39,16744,16859,19015.0,30,19020.0,40,19015.0,19015.0,19010.0,19015.0,90,-28,19010,34,19015,20
2017-02-01 09:01:00,09:01:00,09:01:54,16879,17262,19010.0,40,19015.0,8,19015.0,19040.0,19010.0,19040.0,513,196,19035,32,19040,65
2017-02-01 09:02:00,09:02:00,09:02:57,17268,17408,19035.0,36,19040.0,62,19040.0,19040.0,19035.0,19035.0,95,-35,19030,42,19035,2
2017-02-01 09:03:00,09:03:01,09:03:43,17420,17465,19035.0,1,19040.0,77,19035.0,19035.0,19030.0,19030.0,5,-3,19030,29,19035,37
2017-02-01 09:04:00,09:04:02,09:04:41,17477,17697,19030.0,40,19035.0,38,19035.0,19050.0,19030.0,19045.0,312,14,19040,23,19045,35
2017-02-01 09:05:00,09:05:02,09:05:43,17726,17849,19040.0,44,19045.0,45,19045.0,19050.0,19045.0,19045.0,128,104,19045,19,19050,57
2017-02-01 09:06:00,09:06:00,09:06:59,17862,18052,19045.0,31,19050.0,48,19045.0,19045.0,19040.0,19045.0,161,-11,19045,23,19050,50
2017-02-01 09:07:00,09:07:08,09:07:42,18068,18123,19045.0,27,19050.0,47,19050.0,19050.0,19045.0,19045.0,49,-43,19040,43,19045,9
2017-02-01 09:08:00,09:08:01,09:08:59,18142,18432,19040.0,49,19045.0,12,19040.0,19055.0,19040.0,19055.0,301,-25,19050,27,19055,30
2017-02-01 09:09:00,09:09:00,09:09:40,18435,18630,19050.0,27,19055.0,30,19055.0,19055.0,19040.0,19045.0,196,-52,19040,24,19045,34
2017-02-01 09:10:00,09:10:00,09:10:59,18644,18884,19040.0,37,19045.0,37,19045.0,19045.0,19030.0,19030.0,230,-63,19030,10,19035,66
2017-02-01 09:11:00,09:11:03,09:11:41,18891,18915,19030.0,11,19035.0,69,19030.0,19035.0,19030.0,19035.0,6,-4,19030,31,19035,71
2017-02-01 09:12:00,09:12:00,09:12:59,18932,19014,19030.0,43,19035.0,59,19030.0,19035.0,19030.0,19035.0,92,46,19030,47,19035,23
2017-02-01 09:13:00,09:13:00,09:13:56,19017,19191,19030.0,47,19035.0,23,19035.0,19035.0,19025.0,19030.0,136,27,19025,47,19035,45
2017-02-01 09:14:00,09:14:04,09:14:45,19199,19260,19030.0,8,19035.0,48,19030.0,19030.0,19030.0,19030.0,28,10,19025,47,19035,48
2017-02-01 09:15:00,09:15:10,09:15:51,19287,19425,19025.0,54,19030.0,6,19030.0,19030.0,19020.0,19020.0,157,-81,19020,3,19025,61
2017-02-01 09:16:00,09:16:45,09:16:45,19462,19464,19020.0,41,19025.0,67,19020.0,19020.0,19020.0,19020.0,5,-5,19020,33,19025,68
2017-02-01 09:17:00,09:17:01,09:17:51,19473,19634,19020.0,35,19025.0,67,19020.0,19020.0,19015.0,19020.0,189,91,19020,26,19025,40
2017-02-01 09:18:00,09:18:23,09:18:49,19666,19673,19020.0,48,19025.0,43,19020.0,19020.0,19020.0,19020.0,2,-2,19020,63,19025,43
2017-02-01 09:19:00,09:19:02,09:19:55,19678,19803,19020.0,66,19025.0,43,19025.0,19025.0,19015.0,19015.0,102,-22,19015,19,19020,53
2017-02-01 09:20:00,09:20:00,09:20:47,19811,20006,19015.0,22,19020.0,52,19015.0,19020.0,19010.0,19020.0,185,-11,19020,24,19025,35
2017-02-01 09:21:00,09:21:01,09:21:45,20017,20132,19020.0,41,19025.0,32,19020.0,19025.0,19020.0,19020.0,80,-50,19020,9,19025,44
2017-02-01 09:22:00,09:22:01,09:22:01,20147,20147,19020.0,23,19025.0,44,19020.0,19020.0,19020.0,19020.0,1,-1,19020,22,19025,40
2017-02-01 09:23:00,09:23:00,09:23:45,20209,20341,19020.0,47,19025.0,32,19020.0,19025.0,19010.0,19010.0,100,-78,19005,46,19015,36
2017-02-01 09:24:00,09:24:00,09:24:52,20362,20507,19005.0,49,19010.0,32,19005.0,19015.0,19005.0,19010.0,100,2,19005,43,19010,3
2017-02-01 09:25:00,09:25:03,09:25:40,20525,20599,19005.0,40,19010.0,1,19010.0,19015.0,19005.0,19015.0,62,51,19010,35,19015,8
2017-02-01 09:26:00,09:26:00,09:26:56,20617,20758,19010.0,44,19015.0,75,19010.0,19015.0,19010.0,19015.0,174,-18,19010,42,19015,35
2017-02-01 09:27:00,09:27:01,09:27:41,20768,20828,19010.0,48,19015.0,26,19010.0,19010.0,19005.0,19005.0,42,-42,19005,34,19010,38
2017-02-01 09:28:00,09:28:00,09:28:51,20844,20910,19005.0,38,19010.0,27,19005.0,19010.0,19005.0,19010.0,55,51,19005,48,19015,43
2017-02-01 09:29:00,09:29:00,09:29:34,20928,20986,19010.0,49,19015.0,20,19015.0,19020.0,19015.0,19020.0,14,6,19015,16,19020,46
2017-02-01 09:30:00,09:30:07,09:30:54,21012,21249,19015.0,91,19020.0,40,19020.0,19025.0,18995.0,18995.0,250,-35,18995,25,19000,41
2017-02-01 09:31:00,09:31:00,09:31:55,21257,21377,18995.0,28,19000.0,42,18995.0,19000.0,18995.0,19000.0,152,33,19000,30,19005,40
2017-02-01 09:32:00,09:32:00,09:32:58,21379,21568,19000.0,30,19005.0,45,19000.0,19000.0,18990.0,18995.0,191,-155,18990,35,18995,16
2017-02-01 09:33:00,09:33:10,09:33:10,21578,21603,18990.0,31,18995.0,34,18995.0,18995.0,18995.0,18995.0,40,40,18990,39,18995,20
2017-02-01 09:34:00,09:34:10,09:34:59,21644,21714,18990.0,38,18995.0,25,18995.0,18995.0,18990.0,18990.0,66,-60,18990,12,18995,46
2017-02-01 09:35:00,09:35:00,09:35:59,21719,21956,18990.0,21,18995.0,68,18990.0,19005.0,18990.0,19000.0,241,103,18995,38,19000,21
2017-02-01 09:36:00,09:36:00,09:36:54,21961,22126,18995.0,28,19000.0,23,18995.0,18995.0,18985.0,18990.0,170,4,18985,37,18990,10
2017-02-01 09:37:00,09:37:34,09:37:57,22158,22229,18985.0,30,18990.0,26,18985.0,18990.0,18985.0,18990.0,81,-11,18990,26,18995,35
2017-02-01 09:38:00,09:38:03,09:38:42,22242,22344,18990.0,35,18995.0,37,18990.0,19005.0,18990.0,19005.0,119,29,19000,43,19005,2
2017-02-01 09:39:00,09:39:01,09:39:07,22360,22415,19000.0,38,19005.0,24,19000.0,19000.0,19000.0,19000.0,62,-50,18995,31,19000,1
2017-02-01 09:40:00,09:40:05,09:40:47,22447,22534,18995.0,31,19000.0,26,19000.0,19000.0,18995.0,18995.0,34,12,18995,42,19000,26
2017-02-01 09:41:00,09:41:17,09:41:17,22562,22563,18995.0,47,19000.0,19,19000.0,19000.0,19000.0,19000.0,2,2,18995,42,19000,28
2017-02-01 09:42:00,09:42:00,09:42:41,22598,22682,18995.0,41,19000.0,35,18995.0,19005.0,18995.0,19005.0,77,5,19000,20,19005,35
2017-02-01 09:43:00,09:43:01,09:43:48,22706,22829,19000.0,32,19005.0,29,19000.0,19010.0,19000.0,19010.0,92,12,19005,25,19010,40
2017-02-01 09:44:00,09:44:06,09:44:24,22848,22873,19005.0,12,19010.0,37,19010.0,19010.0,19005.0,19005.0,14,0,19000,79,19005,2
2017-02-01 09:45:00,09:45:00,09:45:58,22887,22970,19000.0,77,19005.0,18,19005.0,19005.0,18990.0,18990.0,91,-89,18990,42,18995,35
2017-02-01 09:46:00,09:46:24,09:46:51,22984,23071,18990.0,44,18995.0,39,18995.0,19000.0,18995.0,19000.0,85,67,18995,34,19000,15
2017-02-01 09:47:00,09:47:04,09:47:47,23082,23171,18995.0,17,19000.0,36,18995.0,19005.0,18995.0,19005.0,54,28,19005,25,19010,34
2017-02-01 09:48:00,09:48:01,09:48:53,23182,23248,19005.0,31,19010.0,31,19005.0,19010.0,19005.0,19010.0,57,-17,19010,13,19015,23
2017-02-01 09:49:00,09:49:15,09:49:59,23278,23416,19010.0,42,19015.0,13,19015.0,19020.0,19015.0,19015.0,115,-67,19015,7,19020,41
2017-02-01 09:50:00,09:50:00,09:50:58,23420,23539,19015.0,4,19020.0,41,19015.0,19020.0,19015.0,19020.0,82,-2,19020,8,19025,24
2017-02-01 09:51:00,09:51:25,09:51:59,23556,23656,19020.0,14,19025.0,34,19020.0,19025.0,19020.0,19025.0,110,98,19020,42,19030,48
2017-02-01 09:52:00,09:52:00,09:52:39,23662,23791,19025.0,2,19030.0,44,19025.0,19035.0,19025.0,19025.0,119,-20,19025,7,19030,34
2017-02-01 09:53:00,09:53:21,09:53:58,23832,23944,19025.0,27,19030.0,35,19025.0,19030.0,19025.0,19030.0,103,61,19030,3,19030,7
2017-02-01 09:54:00,09:54:33,09:54:37,23979,24020,19025.0,42,19030.0,10,19030.0,19030.0,19030.0,19030.0,45,-27,19030,10,19035,60
2017-02-01 09:55:00,09:55:12,09:55:54,24050,24156,19030.0,32,19035.0,54,19030.0,19030.0,19025.0,19025.0,97,-17,19025,10,19030,43
2017-02-01 09:56:00,09:56:13,09:56:39,24178,24242,19025.0,29,19030.0,28,19030.0,19030.0,19030.0,19030.0,74,36,19030,11,19035,60
2017-02-01 09:57:00,09:57:14,09:57:28,24256,24307,19030.0,27,19035.0,42,19030.0,19030.0,19030.0,19030.0,55,-54,19025,40,19035,50
2017-02-01 09:58:00,09:58:07,09:58:55,24325,24388,19030.0,31,19035.0,60,19035.0,19035.0,19035.0,19035.0,116,14,19035,20,19040,53
2017-02-01 09:59:00,09:59:05,09:59:45,24395,24466,19035.0,25,19040.0,54,19035.0,19040.0,19035.0,19035.0,89,-37,19030,71,19035,10
2017-02-01 10:00:00,10:00:09,10:00:57,24488,24627,19030.0,47,19035.0,32,19030.0,19035.0,19030.0,19035.0,167,42,19035,10,19040,66
2017-02-01 10:01:00,10:01:00,10:01:51,24629,24676,19030.0,71,19040.0,66,19040.0,19040.0,19035.0,19035.0,23,-17,19035,13,19040,64
2017-02-01 10:02:00,10:02:11,10:02:46,24692,24742,19035.0,19,19040.0,66,19035.0,19035.0,19030.0,19030.0,37,15,19030,70,19035,39
2017-02-01 10:03:00,10:03:06,10:03:51,24753,24841,19030.0,73,19035.0,34,19030.0,19035.0,19030.0,19035.0,66,36,19030,79,19035,4
2017-02-01 10:04:00,10:04:15,10:04:54,24877,24919,19030.0,80,19035.0,8,19035.0,19035.0,19035.0,19035.0,12,4,19035,58,19040,58
2017-02-01 10:05:00,10:05:12,10:05:53,24928,25000,19035.0,61,19040.0,57,19040.0,19040.0,19030.0,19030.0,53,-3,19030,46,19035,23
2017-02-01 10:06:00,10:06:08,10:06:56,25012,25114,19030.0,55,19035.0,14,19035.0,19035.0,19030.0,19030.0,90,14,19025,42,19030,10
2017-02-01 10:07:00,10:07:04,10:07:04,25125,25169,19025.0,45,19030.0,36,19025.0,19025.0,19025.0,19025.0,76,-76,19025,11,19030,46
2017-02-01 10:08:00,10:08:01,10:08:34,25208,25310,19025.0,28,19030.0,45,19025.0,19030.0,19025.0,19030.0,101,48,19030,9,19035,40
2017-02-01 10:09:00,10:09:09,10:09:26,25336,25406,19030.0,30,19035.0,44,19035.0,19035.0,19035.0,19035.0,60,36,19030,43,19040,47
2017-02-01 10:10:00,10:10:16,10:10:51,25445,25501,19030.0,23,19035.0,37,19030.0,19035.0,19030.0,19035.0,57,-39,19030,10,19035,41
2017-02-01 10:11:00,10:11:06,10:11:47,25504,25562,19030.0,23,19035.0,42,19030.0,19030.0,19030.0,19030.0,48,-48,19030,17,19035,40
2017-02-01 10:12:00,10:12:03,10:12:28,25574,25632,19030.0,7,19035.0,40,19030.0,19030.0,19030.0,19030.0,55,17,19030,8,19035,44
2017-02-01 10:13:00,10:13:01,10:13:40,25645,25710,19030.0,11,19035.0,47,19030.0,19030.0,19025.0,19030.0,38,6,19025,67,19035,42
2017-02-01 10:14:00,10:14:29,10:14:59,25744,25832,19025.0,65,19030.0,7,19030.0,19030.0,19030.0,19030.0,76,20,19025,71,19035,44
2017-02-01 10:15:00,10:15:02,10:15:52,25836,25865,19025.0,71,19035.0,46,19030.0,19030.0,19030.0,19030.0,14,-5,19030,18,19035,42
2017-02-01 10:16:00,10:16:03,10:16:47,25872,25960,19030.0,23,19035.0,35,19035.0,19035.0,19030.0,19030.0,74,-40,19025,64,19030,8
2017-02-01 10:17:00,10:17:00,10:17:52,25978,26066,19025.0,62,19030.0,20,19030.0,19030.0,19020.0,19020.0,84,-80,19020,32,19025,90
2017-02-01 10:18:00,10:18:06,10:18:59,26077,26153,19020.0,26,19025.0,87,19020.0,19025.0,19020.0,19020.0,52,-40,19015,53,19020,24
2017-02-01 10:19:00,10:19:15,10:19:23,26168,26206,19015.0,52,19020.0,25,19020.0,19020.0,19020.0,19020.0,39,33,19020,12,19025,37
2017-02-01 10:20:00,10:20:12,10:20:55,26220,26290,19020.0,23,19025.0,41,19025.0,19025.0,19020.0,19020.0,41,13,19015,46,19020,3
2017-02-01 10:21:00,10:21:15,10:21:54,26311,26371,19015.0,52,19020.0,8,19020.0,19020.0,19020.0,19020.0,31,31,19015,54,19020,4
2017-02-01 10:22:00,10:22:05,10:22:27,26374,26429,19015.0,54,19020.0,4,19020.0,19020.0,19015.0,19015.0,60,-36,19015,2,19020,45
2017-02-01 10:23:00,10:23:04,10:23:31,26449,26481,19015.0,32,19020.0,33,19020.0,19020.0,19020.0,19020.0,23,23,19015,73,19020,20
2017-02-01 10:24:00,10:24:39,10:24:56,26506,26551,19015.0,73,19020.0,17,19020.0,19020.0,19020.0,19020.0,32,22,19020,13,19025,37
2017-02-01 10:25:00,10:25:14,10:25:16,26571,26604,19020.0,37,19025.0,20,19025.0,19025.0,19025.0,19025.0,45,41,19020,31,19025,20
2017-02-01 10:26:00,10:26:35,10:26:47,26643,26653,19020.0,37,19025.0,28,19020.0,19025.0,19020.0,19025.0,6,4,19025,31,19030,40
2017-02-01 10:27:00,10:27:09,10:27:51,26667,26759,19025.0,36,19030.0,35,19030.0,19030.0,19025.0,19025.0,81,-15,19025,14,19030,32
2017-02-01 10:28:00,10:28:19,10:28:57,26780,26819,19025.0,3,19030.0,39,19025.0,19025.0,19025.0,19025.0,19,-3,19025,21,19030,37
2017-02-01 10:29:00,10:29:08,10:29:58,26833,26898,19025.0,29,19030.0,35,19025.0,19030.0,19025.0,19030.0,45,8,19025,20,19030,31
2017-02-01 10:30:00,10:30:10,10:30:32,26910,26936,19025.0,19,19030.0,38,19025.0,19025.0,19025.0,19025.0,18,-18,19020,38,19025,20
2017-02-01 10:31:00,10:31:02,10:31:28,26949,27015,19020.0,35,19025.0,35,19020.0,19020.0,19015.0,19015.0,49,-41,19010,37,19015,34
2017-02-01 10:32:00,10:32:00,10:32:52,27027,27053,19010.0,38,19015.0,35,19010.0,19010.0,19010.0,19010.0,15,-15,19010,10,19015,50
2017-02-01 10:33:00,10:33:00,10:33:29,27057,27086,19010.0,10,19015.0,51,19015.0,19020.0,19015.0,19020.0,31,31,19015,19,19020,33
2017-02-01 10:34:00,10:34:01,10:34:54,27096,27157,19015.0,14,19020.0,34,19020.0,19020.0,19015.0,19015.0,40,18,19010,42,19015,8
2017-02-01 10:35:00,10:35:07,10:35:36,27174,27206,19015.0,17,19020.0,38,19015.0,19015.0,19015.0,19015.0,15,5,19010,43,19015,10
2017-02-01 10:36:00,10:36:20,10:36:20,27238,27246,19010.0,38,19015.0,18,19015.0,19015.0,19015.0,19015.0,11,11,19010,41,19015,7
2017-02-01 10:37:00,10:37:27,10:37:27,27261,27263,19010.0,41,19015.0,13,19015.0,19015.0,19015.0,19015.0,4,4,19015,2,19020,36
2017-02-01 10:38:00,10:38:00,10:38:00,0,0,0.0,0,0.0,0,19015.0,19015.0,19015.0,19015.0,0,0,0,0,0,0
2017-02-01 10:39:00,10:39:45,10:39:51,27328,27372,19010.0,33,19015.0,40,19015.0,19020.0,19015.0,19020.0,64,62,19015,29,19020,27
2017-02-01 10:40:00,10:40:00,10:40:00,0,0,0.0,0,0.0,0,19020.0,19020.0,19020.0,19020.0,0,0,0,0,0,0
2017-02-01 10:41:00,10:41:00,10:41:00,0,0,0.0,0,0.0,0,19020.0,19020.0,19020.0,19020.0,0,0,0,0,0,0
2017-02-01 10:42:00,10:42:25,10:42:54,27434,27501,19015.0,30,19020.0,33,19020.0,19025.0,19020.0,19025.0,55,13,19020,32,19025,8
2017-02-01 10:43:00,10:43:19,10:43:59,27517,27612,19020.0,36,19025.0,30,19020.0,19035.0,19015.0,19030.0,179,-83,19025,98,19030,1
2017-02-01 10:44:00,10:44:24,10:44:24,27634,27654,19025.0,94,19030.0,34,19025.0,19025.0,19025.0,19025.0,88,-82,19020,35,19025,2
2017-02-01 10:45:00,10:45:15,10:45:59,27672,27797,19025.0,26,19030.0,38,19025.0,19040.0,19025.0,19040.0,109,84,19035,36,19040,4
2017-02-01 10:46:00,10:46:01,10:46:46,27802,27887,19035.0,36,19040.0,12,19040.0,19040.0,19035.0,19040.0,90,0,19035,32,19040,44
2017-02-01 10:47:00,10:47:25,10:47:25,27914,27921,19035.0,29,19040.0,54,19035.0,19035.0,19035.0,19035.0,10,-10,19035,15,19040,57
2017-02-01 10:48:00,10:48:21,10:48:48,27938,27974,19035.0,21,19040.0,60,19035.0,19035.0,19035.0,19035.0,56,10,19030,61,19040,37
2017-02-01 10:49:00,10:49:00,10:49:48,27988,28009,19035.0,24,19040.0,33,19040.0,19040.0,19040.0,19040.0,7,7,19035,31,19040,32
2017-02-01 10:50:00,10:50:01,10:50:26,28016,28029,19035.0,34,19040.0,34,19035.0,19035.0,19035.0,19035.0,3,-3,19035,31,19040,36
2017-02-01 10:51:00,10:51:07,10:51:07,28044,28044,19035.0,39,19040.0,36,19035.0,19035.0,19035.0,19035.0,1,-1,19035,38,19040,34
2017-02-01 10:52:00,10:52:53,10:52:53,28074,28087,19035.0,38,19040.0,36,19035.0,19035.0,19035.0,19035.0,21,-21,19035,18,19040,45
2017-02-01 10:53:00,10:53:40,10:53:40,28105,28105,19035.0,25,19040.0,42,19035.0,19035.0,19035.0,19035.0,1,-1,19035,24,19040,41
2017-02-01 10:54:00,10:54:04,10:54:17,28117,28131,19035.0,14,19040.0,42,19035.0,19035.0,19035.0,19035.0,11,-11,19035,5,19040,45
2017-02-01 10:55:00,10:55:26,10:55:55,28155,28193,19035.0,19,19040.0,43,19035.0,19035.0,19035.0,19035.0,21,-8,19035,9,19040,43
2017-02-01 10:56:00,10:56:15,10:56:48,28208,28265,19035.0,25,19040.0,44,19040.0,19040.0,19040.0,19040.0,65,25,19035,27,19040,26
2017-02-01 10:57:00,10:57:00,10:57:00,0,0,0.0,0,0.0,0,19040.0,19040.0,19040.0,19040.0,0,0,0,0,0,0
2017-02-01 10:58:00,10:58:30,10:58:55,28306,28333,19035.0,32,19040.0,19,19035.0,19045.0,19035.0,19040.0,34,32,19040,39,19045,11
2017-02-01 10:59:00,10:59:05,10:59:47,28342,28362,19040.0,41,19045.0,8,19040.0,19040.0,19040.0,19040.0,2,-2,19040,49,19045,4
2017-02-01 11:00:00,11:00:01,11:00:01,28368,28368,19040.0,51,19045.0,3,19040.0,19040.0,19040.0,19040.0,1,-1,19040,42,19045,11
2017-02-01 11:01:00,11:01:03,11:01:42,28400,28437,19040.0,56,19045.0,10,19045.0,19050.0,19045.0,19050.0,8,8,19045,40,19050,32
2017-02-01 11:02:00,11:02:04,11:02:58,28452,28601,19045.0,37,19050.0,37,19045.0,19050.0,19045.0,19050.0,129,-30,19045,33,19050,19
2017-02-01 11:03:00,11:03:00,11:03:00,0,0,0.0,0,0.0,0,19050.0,19050.0,19050.0,19050.0,0,0,0,0,0,0
2017-02-01 11:04:00,11:04:31,11:04:44,28644,28744,19045.0,42,19050.0,51,19045.0,19045.0,19040.0,19045.0,134,-68,19045,21,19050,56
2017-02-01 11:05:00,11:05:00,11:05:00,28757,28758,19045.0,28,19050.0,48,19050.0,19050.0,19050.0,19050.0,2,2,19045,30,19050,44
2017-02-01 11:06:00,11:06:31,11:06:59,28793,28831,19045.0,24,19050.0,57,19045.0,19045.0,19045.0,19045.0,22,-22,19040,43,19045,3
2017-02-01 11:07:00,11:07:00,11:07:59,28835,28863,19040.0,43,19045.0,1,19045.0,19045.0,19045.0,19045.0,5,-3,19040,43,19045,11
2017-02-01 11:08:00,11:08:00,11:08:00,0,0,0.0,0,0.0,0,19045.0,19045.0,19045.0,19045.0,0,0,0,0,0,0
2017-02-01 11:09:00,11:09:07,11:09:51,28890,28930,19040.0,45,19045.0,29,19045.0,19050.0,19045.0,19045.0,33,-1,19045,14,19050,50
2017-02-01 11:10:00,11:10:11,11:10:11,28943,28963,19045.0,23,19050.0,47,19050.0,19050.0,19050.0,19050.0,39,39,19045,31,19050,22
2017-02-01 11:11:00,11:11:06,11:11:21,28981,28991,19045.0,28,19050.0,39,19045.0,19045.0,19045.0,19045.0,3,-3,19040,43,19045,9
2017-02-01 11:12:00,11:12:01,11:12:34,29007,29029,19040.0,51,19045.0,17,19045.0,19050.0,19045.0,19050.0,8,8,19045,33,19050,31
2017-02-01 11:13:00,11:13:06,11:13:28,29043,29063,19045.0,25,19050.0,33,19050.0,19050.0,19045.0,19045.0,10,-8,19045,9,19050,39
2017-02-01 11:14:00,11:14:00,11:14:00,0,0,0.0,0,0.0,0,19045.0,19045.0,19045.0,19045.0,0,0,0,0,0,0
2017-02-01 11:15:00,11:15:03,11:15:55,29085,29136,19040.0,51,19045.0,6,19045.0,19045.0,19045.0,19045.0,20,-10,19040,50,19045,3
2017-02-01 11:16:00,11:16:05,11:16:05,29140,29141,19045.0,2,19050.0,40,19045.0,19045.0,19045.0,19045.0,2,-2,19040,52,19045,3
2017-02-01 11:17:00,11:17:13,11:17:32,29154,29172,19040.0,53,19045.0,15,19045.0,19045.0,19045.0,19045.0,17,3,19045,9,19050,39
2017-02-01 11:18:00,11:18:32,11:18:32,29194,29194,19045.0,30,19050.0,34,19045.0,19045.0,19045.0,19045.0,2,-2,19045,28,19050,37
2017-02-01 11:19:00,11:19:04,11:19:29,29222,29259,19045.0,6,19050.0,44,19045.0,19050.0,19045.0,19050.0,30,11,19045,78,19050,16
2017-02-01 11:20:00,11:20:11,11:20:12,29268,29270,19045.0,79,19050.0,24,19050.0,19050.0,19050.0,19050.0,2,2,19045,78,19050,26
2017-02-01 11:21:00,11:21:00,11:21:55,29284,29341,19045.0,80,19050.0,30,19050.0,19050.0,19045.0,19045.0,10,-4,19045,73,19050,47
2017-02-01 11:22:00,11:22:37,11:22:37,29363,29363,19045.0,78,19050.0,57,19045.0,19045.0,19045.0,19045.0,1,-1,19045,75,19050,58
2017-02-01 11:23:00,11:23:18,11:23:18,29376,29376,19045.0,75,19050.0,61,19045.0,19045.0,19045.0,19045.0,1,-1,19045,74,19050,62
2017-02-01 11:24:00,11:24:28,11:24:28,29390,29390,19045.0,75,19050.0,71,19050.0,19050.0,19050.0,19050.0,1,1,19045,74,19050,70
2017-02-01 11:25:00,11:25:00,11:25:58,29395,29444,19045.0,74,19050.0,72,19045.0,19045.0,19045.0,19045.0,104,-40,19045,2,19050,53
2017-02-01 11:26:00,11:26:00,11:26:51,29448,29557,19045.0,23,19050.0,53,19045.0,19055.0,19045.0,19055.0,90,27,19050,49,19055,11
2017-02-01 11:27:00,11:27:04,11:27:35,29565,29637,19050.0,49,19055.0,24,19050.0,19055.0,19050.0,19050.0,84,-82,19050,12,19055,36
2017-02-01 11:28:00,11:28:01,11:28:42,29652,29717,19050.0,53,19055.0,41,19050.0,19050.0,19050.0,19050.0,112,-72,19045,47,19055,60
2017-02-01 11:29:00,11:29:42,11:29:42,29741,29760,19045.0,48,19050.0,32,19050.0,19050.0,19050.0,19050.0,32,32,19045,47,19050,12
2017-02-01 11:30:00,11:30:00,11:30:54,29782,29915,19045.0,18,19050.0,38,19045.0,19050.0,19045.0,19050.0,94,8,19050,2,19055,52
2017-02-01 11:31:00,11:31:21,11:31:57,29941,30185,19050.0,45,19055.0,37,19050.0,19070.0,19050.0,19070.0,295,135,19070,37,19080,76
2017-02-01 11:32:00,11:32:01,11:32:58,30189,30516,19070.0,40,19075.0,20,19075.0,19085.0,19070.0,19080.0,384,114,19075,33,19080,29
2017-02-01 11:33:00,11:33:00,11:33:44,30518,30713,19075.0,32,19080.0,29,19080.0,19080.0,19075.0,19075.0,184,-64,19075,18,19080,113
2017-02-01 11:34:00,11:34:03,11:34:46,30734,30774,19075.0,46,19080.0,42,19080.0,19080.0,19075.0,19075.0,45,-21,19070,39,19075,9
2017-02-01 11:35:00,11:35:13,11:35:54,30804,30940,19070.0,25,19075.0,91,19070.0,19075.0,19070.0,19070.0,143,37,19070,65,19075,13
2017-02-01 11:36:00,11:36:45,11:36:59,30979,31018,19070.0,63,19075.0,40,19075.0,19075.0,19075.0,19075.0,41,41,19075,22,19080,52
2017-02-01 11:37:00,11:37:00,11:37:44,31020,31095,19070.0,73,19080.0,52,19080.0,19080.0,19075.0,19075.0,117,99,19075,104,19080,42
2017-02-01 11:38:00,11:38:19,11:38:19,31108,31108,19075.0,107,19080.0,40,19075.0,19075.0,19075.0,19075.0,1,-1,19075,106,19080,41
2017-02-01 11:39:00,11:39:10,11:39:52,31124,31153,19075.0,108,19080.0,46,19075.0,19075.0,19075.0,19075.0,18,-10,19070,47,19075,23
2017-02-01 11:40:00,11:40:00,11:40:44,31159,31259,19070.0,45,19075.0,48,19070.0,19070.0,19065.0,19065.0,138,-108,19065,11,19070,43
2017-02-01 11:41:00,11:41:00,11:41:55,31274,31522,19065.0,19,19070.0,55,19065.0,19065.0,19055.0,19060.0,256,-24,19055,12,19060,40
2017-02-01 11:42:00,11:42:03,11:42:37,31532,31602,19055.0,5,19060.0,42,19055.0,19055.0,19055.0,19055.0,43,-3,19050,48,19060,45
2017-02-01 11:43:00,11:43:31,11:43:56,31642,31747,19055.0,22,19060.0,50,19060.0,19065.0,19060.0,19065.0,100,99,19060,38,19065,4
2017-02-01 11:44:00,11:44:02,11:44:38,31756,31820,19060.0,38,19065.0,13,19065.0,19070.0,19065.0,19070.0,53,41,19065,43,19075,57
2017-02-01 11:45:00,11:45:26,11:45:56,31867,31966,19070.0,10,19075.0,53,19070.0,19070.0,19065.0,19065.0,172,-137,19060,40,19065,81
2017-02-01 11:46:00,11:46:06,11:46:59,31973,32115,19060.0,41,19065.0,82,19065.0,19065.0,19055.0,19060.0,245,50,19055,58,19060,14
2017-02-01 11:47:00,11:47:20,11:47:53,32138,32223,19055.0,59,19060.0,20,19060.0,19060.0,19055.0,19055.0,120,-68,19055,5,19060,39
2017-02-01 11:48:00,11:48:05,11:48:09,32227,32232,19055.0,10,19060.0,39,19055.0,19060.0,19055.0,19060.0,2,0,19055,21,19060,37
2017-02-01 11:49:00,11:49:22,11:49:56,32251,32502,19055.0,21,19060.0,51,19060.0,19070.0,19060.0,19070.0,358,148,19070,6,19075,49
2017-02-01 11:50:00,11:50:02,11:50:57,32512,32688,19070.0,2,19075.0,50,19070.0,19080.0,19070.0,19080.0,135,120,19075,44,19080,12
2017-02-01 11:51:00,11:51:20,11:51:49,32732,32803,19075.0,54,19080.0,26,19080.0,19080.0,19075.0,19080.0,45,43,19075,48,19080,2
2017-02-01 11:52:00,11:52:00,11:52:00,0,0,0.0,0,0.0,0,19080.0,19080.0,19080.0,19080.0,0,0,0,0,0,0
2017-02-01 11:53:00,11:53:00,11:53:29,32863,32984,19075.0,43,19080.0,27,19080.0,19085.0,19080.0,19085.0,131,62,19080,40,19085,23
2017-02-01 11:54:00,11:54:01,11:54:49,33024,33335,19080.0,38,19085.0,42,19085.0,19100.0,19085.0,19095.0,496,216,19095,65,19100,41
2017-02-01 11:55:00,11:55:03,11:55:39,33358,33516,19095.0,78,19100.0,20,19100.0,19100.0,19095.0,19095.0,182,40,19090,47,19100,48
2017-02-01 11:56:00,11:56:00,11:56:00,0,0,0.0,0,0.0,0,19095.0,19095.0,19095.0,19095.0,0,0,0,0,0,0
2017-02-01 11:57:00,11:57:22,11:57:22,33595,33596,19090.0,71,19095.0,37,19090.0,19090.0,19090.0,19090.0,2,-2,19090,57,19095,45
2017-02-01 11:58:00,11:58:23,11:58:52,33623,33721,19090.0,57,19095.0,42,19095.0,19095.0,19085.0,19090.0,118,-70,19085,54,19090,12
2017-02-01 11:59:00,11:59:14,11:59:35,33748,33809,19085.0,36,19090.0,43,19085.0,19085.0,19085.0,19085.0,49,-39,19085,18,19090,38
2017-02-01 12:00:00,12:00:00,12:00:56,33840,33984,19085.0,31,19090.0,33,19090.0,19090.0,19080.0,19085.0,222,-102,19080,45,19085,12
2017-02-01 12:01:00,12:01:06,12:01:58,33997,34109,19080.0,47,19085.0,61,19080.0,19085.0,19080.0,19080.0,165,-84,19080,6,19085,103
2017-02-01 12:02:00,12:02:15,12:02:40,34122,34184,19080.0,17,19085.0,98,19080.0,19080.0,19080.0,19080.0,72,18,19080,8,19085,99
2017-02-01 12:03:00,12:03:21,12:03:56,34219,34310,19080.0,39,19085.0,93,19080.0,19085.0,19080.0,19085.0,140,90,19080,32,19085,50
2017-02-01 12:04:00,12:04:17,12:04:26,34333,34382,19080.0,38,19085.0,51,19080.0,19080.0,19080.0,19080.0,60,-32,19075,50,19085,62
2017-02-01 12:05:00,12:05:12,12:05:40,34425,34493,19075.0,48,19080.0,8,19080.0,19085.0,19080.0,19085.0,48,36,19080,55,19085,3
2017-02-01 12:06:00,12:06:19,12:06:58,34519,34615,19080.0,51,19085.0,53,19080.0,19085.0,19080.0,19080.0,90,-31,19080,26,19085,69
2017-02-01 12:07:00,12:07:09,12:07:42,34623,34673,19080.0,25,19085.0,65,19080.0,19085.0,19080.0,19085.0,37,23,19080,28,19085,61
2017-02-01 12:08:00,12:08:00,12:08:00,0,0,0.0,0,0.0,0,19085.0,19085.0,19085.0,19085.0,0,0,0,0,0,0
2017-02-01 12:09:00,12:09:00,12:09:46,34717,34761,19080.0,49,19085.0,53,19085.0,19085.0,19080.0,19085.0,65,63,19080,44,19085,4
2017-02-01 12:10:00,12:10:47,12:10:59,34796,34841,19080.0,44,19085.0,45,19080.0,19080.0,19080.0,19080.0,31,-15,19080,21,19085,40
2017-02-01 12:11:00,12:11:08,12:11:16,34845,34871,19080.0,34,19085.0,40,19085.0,19085.0,19085.0,19085.0,19,15,19080,36,19085,15
2017-02-01 12:12:00,12:12:05,12:12:30,34911,34999,19080.0,49,19085.0,29,19080.0,19080.0,19080.0,19080.0,92,-48,19075,52,19080,7
2017-02-01 12:13:00,12:13:22,12:13:25,35031,35060,19075.0,51,19080.0,37,19075.0,19075.0,19075.0,19075.0,55,-33,19075,16,19080,44
2017-02-01 12:14:00,12:14:31,12:14:51,35098,35593,19075.0,24,19080.0,42,19080.0,19115.0,19080.0,19110.0,914,786,19110,13,19115,67
2017-02-01 12:15:00,12:15:01,12:15:47,35612,35831,19110.0,38,19115.0,52,19110.0,19120.0,19110.0,19110.0,239,-3,19110,47,19115,34
2017-02-01 12:16:00,12:16:05,12:16:56,35845,36056,19110.0,45,19115.0,40,19110.0,19120.0,19110.0,19115.0,223,5,19115,60,19120,27
2017-02-01 12:17:00,12:17:03,12:17:45,36064,36137,19115.0,58,19120.0,28,19120.0,19120.0,19115.0,19115.0,75,-27,19115,20,19120,36
2017-02-01 12:18:00,12:18:11,12:18:53,36158,36455,19115.0,22,19120.0,39,19120.0,19135.0,19120.0,19120.0,451,-37,19115,34,19120,51
2017-02-01 12:19:00,12:19:14,12:19:42,36474,36567,19115.0,45,19120.0,44,19120.0,19120.0,19115.0,19115.0,118,-48,19110,46,19120,45
2017-02-01 12:20:00,12:20:12,12:20:15,36580,36595,19115.0,19,19120.0,48,19115.0,19115.0,19115.0,19115.0,28,-10,19110,47,19120,46
2017-02-01 12:21:00,12:21:03,12:21:50,36619,36691,19110.0,59,19115.0,16,19110.0,19115.0,19110.0,19110.0,63,-9,19110,25,19115,41
2017-02-01 12:22:00,12:22:09,12:22:59,36709,36803,19110.0,51,19115.0,32,19115.0,19120.0,19115.0,19120.0,78,26,19115,21,19120,27
2017-02-01 12:23:00,12:23:01,12:23:55,36809,36911,19115.0,14,19120.0,38,19115.0,19120.0,19115.0,19115.0,115,13,19110,57,19120,41
2017-02-01 12:24:00,12:24:01,12:24:42,36917,36955,19115.0,10,19120.0,41,19115.0,19115.0,19115.0,19115.0,42,2,19115,9,19120,42
2017-02-01 12:25:00,12:25:00,12:25:41,36968,37077,19115.0,14,19120.0,44,19120.0,19130.0,19115.0,19125.0,104,64,19125,35,19130,39
2017-02-01 12:26:00,12:26:12,12:26:49,37118,37194,19125.0,79,19130.0,37,19130.0,19130.0,19125.0,19125.0,95,-67,19125,7,19130,47
2017-02-01 12:27:00,12:27:22,12:27:48,37224,37242,19125.0,37,19130.0,35,19125.0,19125.0,19125.0,19125.0,3,-3,19125,37,19130,41
2017-02-01 12:28:00,12:28:04,12:28:47,37248,37347,19125.0,38,19130.0,43,19130.0,19130.0,19130.0,19130.0,93,87,19125,46,19130,14
2017-02-01 12:29:00,12:29:31,12:29:59,37370,37406,19125.0,40,19130.0,31,19130.0,19130.0,19125.0,19125.0,39,-27,19125,12,19130,37
2017-02-01 12:30:00,12:30:03,12:30:55,37414,37561,19125.0,24,19130.0,35,19125.0,19135.0,19125.0,19135.0,164,84,19130,44,19135,34
2017-02-01 12:31:00,12:31:04,12:31:54,37575,37647,19130.0,43,19135.0,37,19130.0,19130.0,19130.0,19130.0,78,-54,19125,56,19130,22
2017-02-01 12:32:00,12:32:25,12:32:40,37669,37711,19125.0,64,19130.0,25,19130.0,19130.0,19130.0,19130.0,59,11,19125,42,19130,10
2017-02-01 12:33:00,12:33:11,12:33:32,37733,37780,19125.0,46,19130.0,19,19130.0,19130.0,19130.0,19130.0,29,3,19125,58,19130,10
2017-02-01 12:34:00,12:34:17,12:34:57,37804,37911,19125.0,63,19130.0,25,19130.0,19130.0,19125.0,19125.0,167,-36,19120,43,19125,26
2017-02-01 12:35:00,12:35:00,12:35:58,37915,37994,19120.0,43,19125.0,25,19125.0,19125.0,19120.0,19125.0,78,42,19120,61,19125,12
2017-02-01 12:36:00,12:36:02,12:36:58,37998,38107,19120.0,62,19125.0,12,19125.0,19125.0,19120.0,19125.0,67,4,19120,47,19125,24
2017-02-01 12:37:00,12:37:10,12:37:46,38113,38184,19120.0,47,19125.0,26,19125.0,19130.0,19125.0,19130.0,84,82,19130,3,19135,39
2017-02-01 12:38:00,12:38:09,12:38:44,38196,38264,19130.0,33,19135.0,37,19135.0,19135.0,19130.0,19130.0,60,-16,19130,22,19135,34
2017-02-01 12:39:00,12:39:16,12:39:59,38272,38314,19130.0,41,19135.0,33,19130.0,19130.0,19130.0,19130.0,53,-53,19130,31,19135,40
2017-02-01 12:40:00,12:40:03,12:40:04,38317,38353,19130.0,31,19135.0,40,19130.0,19130.0,19130.0,19130.0,46,-46,19130,19,19135,35
2017-02-01 12:41:00,12:41:00,12:41:59,38368,38543,19130.0,25,19135.0,38,19135.0,19145.0,19130.0,19140.0,179,139,19140,10,19145,86
2017-02-01 12:42:00,12:42:00,12:42:55,38546,38648,19140.0,10,19145.0,86,19145.0,19145.0,19140.0,19140.0,89,36,19135,39,19140,6
2017-02-01 12:43:00,12:43:25,12:43:49,38660,38686,19135.0,34,19140.0,18,19140.0,19140.0,19135.0,19135.0,35,-33,19130,31,19135,30
2017-02-01 12:44:00,12:44:01,12:44:34,38699,38760,19130.0,40,19135.0,12,19135.0,19140.0,19135.0,19140.0,45,29,19135,39,19140,15
2017-02-01 12:45:00,12:45:12,12:45:37,38780,38814,19135.0,43,19140.0,21,19140.0,19140.0,19135.0,19135.0,33,-31,19135,22,19140,34
2017-02-01 12:46:00,12:46:24,12:46:34,38841,38885,19135.0,36,19140.0,39,19135.0,19135.0,19135.0,19135.0,45,-45,19135,16,19140,43
2017-02-01 12:47:00,12:47:07,12:47:26,38898,38942,19135.0,40,19140.0,37,19135.0,19135.0,19135.0,19135.0,68,-50,19130,35,19135,27
2017-02-01 12:48:00,12:48:50,12:48:50,38978,38993,19130.0,24,19135.0,52,19130.0,19130.0,19130.0,19130.0,25,-25,19130,17,19135,31
2017-02-01 12:49:00,12:49:13,12:49:13,39003,39003,19130.0,23,19135.0,33,19130.0,19130.0,19130.0,19130.0,1,-1,19130,22,19135,43
2017-02-01 12:50:00,12:50:00,12:50:44,39019,39126,19130.0,32,19135.0,41,19135.0,19140.0,19135.0,19135.0,90,24,19130,45,19140,45
2017-02-01 12:51:00,12:51:00,12:51:39,39138,39170,19135.0,14,19140.0,46,19135.0,19140.0,19135.0,19135.0,18,-16,19130,41,19135,2
2017-02-01 12:52:00,12:52:21,12:52:21,39191,39196,19130.0,40,19135.0,23,19130.0,19130.0,19130.0,19130.0,10,-10,19130,38,19135,25
2017-02-01 12:53:00,12:53:03,12:53:17,39211,39220,19130.0,41,19135.0,46,19130.0,19135.0,19130.0,19135.0,6,-2,19130,38,19135,44
2017-02-01 12:54:00,12:54:03,12:54:32,39238,39287,19130.0,20,19135.0,56,19130.0,19130.0,19125.0,19125.0,50,-50,19125,20,19130,40
2017-02-01 12:55:00,12:55:10,12:55:48,39308,39367,19125.0,32,19130.0,52,19125.0,19125.0,19125.0,19125.0,86,-28,19120,56,19125,39
2017-02-01 12:56:00,12:56:00,12:56:28,39382,39431,19120.0,77,19125.0,36,19125.0,19125.0,19125.0,19125.0,84,16,19125,20,19130,44
2017-02-01 12:57:00,12:57:00,12:57:17,39451,39537,19125.0,24,19130.0,43,19130.0,19130.0,19130.0,19130.0,98,98,19130,8,19135,59
2017-02-01 12:58:00,12:58:18,12:58:43,39578,39673,19130.0,18,19135.0,59,19130.0,19135.0,19130.0,19135.0,104,-88,19130,12,19135,51
2017-02-01 12:59:00,12:59:04,12:59:52,39683,39786,19130.0,38,19135.0,38,19130.0,19140.0,19130.0,19135.0,122,-12,19135,12,19135,6
2017-02-01 13:00:00,13:00:00,13:00:25,39788,39901,19135.0,12,19140.0,62,19135.0,19135.0,19125.0,19125.0,118,-104,19125,17,19130,42
2017-02-01 13:01:00,13:01:01,13:01:51,39913,40018,19125.0,27,19130.0,43,19125.0,19130.0,19120.0,19120.0,121,-25,19120,38,19125,38
2017-02-01 13:02:00,13:02:03,13:02:41,40027,40066,19120.0,48,19125.0,27,19125.0,19125.0,19125.0,19125.0,20,20,19125,17,19130,43
2017-02-01 13:03:00,13:03:00,13:03:00,0,0,0.0,0,0.0,0,19125.0,19125.0,19125.0,19125.0,0,0,0,0,0,0
2017-02-01 13:04:00,13:04:17,13:04:17,40089,40095,19125.0,42,19130.0,61,19125.0,19125.0,19125.0,19125.0,20,-20,19125,34,19130,64
2017-02-01 13:05:00,13:05:30,13:05:45,40101,40146,19125.0,37,19130.0,69,19125.0,19125.0,19120.0,19120.0,70,-70,19120,21,19125,50
2017-02-01 13:06:00,13:06:16,13:06:50,40172,40257,19120.0,27,19125.0,45,19125.0,19125.0,19120.0,19120.0,103,49,19115,88,19120,11
2017-02-01 13:07:00,13:07:16,13:07:18,40276,40322,19115.0,105,19120.0,4,19120.0,19120.0,19115.0,19115.0,131,-115,19115,21,19120,38
2017-02-01 13:08:00,13:08:25,13:08:46,40358,40431,19115.0,50,19120.0,21,19120.0,19125.0,19115.0,19120.0,58,26,19120,10,19125,50
2017-02-01 13:09:00,13:09:01,13:09:40,40445,40581,19120.0,15,19125.0,50,19120.0,19125.0,19120.0,19125.0,134,20,19120,48,19130,65
2017-02-01 13:10:00,13:10:16,13:10:57,40600,40676,19125.0,17,19130.0,66,19125.0,19125.0,19125.0,19125.0,54,-8,19120,57,19130,62
2017-02-01 13:11:00,13:11:15,13:11:49,40697,40759,19120.0,57,19125.0,10,19125.0,19125.0,19120.0,19125.0,62,-6,19120,59,19125,8
2017-02-01 13:12:00,13:12:17,13:12:56,40777,40832,19120.0,48,19125.0,28,19125.0,19125.0,19125.0,19125.0,46,14,19120,49,19125,5
2017-02-01 13:13:00,13:13:00,13:13:52,40836,40933,19120.0,49,19125.0,8,19125.0,19130.0,19125.0,19130.0,120,75,19125,58,19135,56
2017-02-01 13:14:00,13:14:20,13:14:36,40950,41016,19130.0,30,19135.0,51,19130.0,19130.0,19130.0,19130.0,72,-68,19125,56,19130,8
2017-02-01 13:15:00,13:15:29,13:15:48,41042,41088,19125.0,40,19130.0,42,19125.0,19125.0,19125.0,19125.0,65,-3,19120,53,19130,45
2017-02-01 13:16:00,13:16:05,13:16:57,41096,41219,19120.0,44,19125.0,9,19125.0,19125.0,19120.0,19125.0,141,73,19120,46,19125,12
2017-02-01 13:17:00,13:17:09,13:17:53,41225,41276,19120.0,51,19125.0,10,19125.0,19125.0,19125.0,19125.0,32,14,19120,47,19125,24
2017-02-01 13:18:00,13:18:17,13:18:47,41283,41303,19120.0,45,19125.0,28,19125.0,19125.0,19125.0,19125.0,9,9,19120,47,19125,20
2017-02-01 13:19:00,13:19:11,13:19:45,41313,41333,19120.0,46,19125.0,25,19125.0,19125.0,19125.0,19125.0,18,18,19125,13,19130,43
2017-02-01 13:20:00,13:20:04,13:20:11,41352,41448,19125.0,47,19130.0,38,19125.0,19125.0,19120.0,19125.0,151,-70,19120,46,19130,44
2017-02-01 13:21:00,13:21:04,13:21:52,41494,41616,19125.0,52,19130.0,13,19130.0,19135.0,19130.0,19135.0,135,51,19130,59,19135,2
2017-02-01 13:22:00,13:22:00,13:22:58,41624,41702,19130.0,64,19135.0,13,19135.0,19140.0,19135.0,19140.0,119,-77,19135,30,19140,36
2017-02-01 13:23:00,13:23:13,13:23:58,41710,41891,19135.0,40,19140.0,37,19140.0,19145.0,19140.0,19145.0,252,200,19140,60,19145,28
2017-02-01 13:24:00,13:24:00,13:24:54,41895,41998,19140.0,60,19145.0,30,19140.0,19145.0,19140.0,19140.0,164,-34,19135,54,19140,22
2017-02-01 13:25:00,13:25:19,13:25:52,42015,42039,19135.0,53,19140.0,22,19140.0,19140.0,19135.0,19140.0,5,3,19135,54,19140,23
2017-02-01 13:26:00,13:26:38,13:26:50,42055,42064,19135.0,52,19140.0,44,19140.0,19140.0,19140.0,19140.0,5,5,19135,53,19140,45
2017-02-01 13:27:00,13:27:48,13:27:48,42077,42077,19135.0,52,19140.0,65,19140.0,19140.0,19140.0,19140.0,1,1,19135,54,19140,64
2017-02-01 13:28:00,13:28:12,13:28:55,42084,42219,19135.0,52,19140.0,68,19135.0,19135.0,19135.0,19135.0,142,-44,19130,49,19135,4
2017-02-01 13:29:00,13:29:00,13:29:44,42223,42240,19130.0,50,19135.0,4,19135.0,19140.0,19135.0,19140.0,8,8,19135,37,19140,55
2017-02-01 13:30:00,13:30:02,13:30:47,42247,42276,19135.0,40,19140.0,58,19135.0,19140.0,19135.0,19140.0,9,3,19135,38,19140,56
2017-02-01 13:31:00,13:31:40,13:31:40,42304,42304,19135.0,45,19140.0,66,19140.0,19140.0,19140.0,19140.0,1,1,19135,47,19140,65
2017-02-01 13:32:00,13:32:38,13:32:57,42337,42410,19135.0,77,19140.0,72,19140.0,19140.0,19135.0,19140.0,93,83,19135,40,19140,12
2017-02-01 13:33:00,13:33:20,13:33:56,42427,42509,19135.0,35,19140.0,92,19135.0,19135.0,19135.0,19135.0,82,-52,19130,56,19135,10
2017-02-01 13:34:00,13:34:02,13:34:42,42515,42560,19130.0,56,19135.0,4,19135.0,19140.0,19135.0,19135.0,20,-12,19135,5,19140,83
2017-02-01 13:35:00,13:35:10,13:35:36,42575,42634,19135.0,32,19140.0,87,19135.0,19135.0,19130.0,19130.0,73,-67,19130,54,19135,32
2017-02-01 13:36:00,13:36:04,13:36:52,42641,42663,19130.0,55,19135.0,36,19135.0,19135.0,19130.0,19130.0,11,9,19130,46,19135,79
2017-02-01 13:37:00,13:37:28,13:37:49,42669,42714,19130.0,44,19135.0,79,19135.0,19140.0,19130.0,19140.0,80,72,19135,37,19140,89
2017-02-01 13:38:00,13:38:08,13:38:58,42727,42771,19135.0,35,19140.0,92,19135.0,19140.0,19135.0,19135.0,15,-7,19135,30,19140,93
2017-02-01 13:39:00,13:39:22,13:39:35,42782,42793,19135.0,39,19140.0,93,19135.0,19140.0,19135.0,19140.0,5,3,19135,41,19140,93
2017-02-01 13:40:00,13:40:07,13:40:22,42806,42835,19135.0,43,19140.0,88,19135.0,19135.0,19135.0,19135.0,20,-18,19130,65,19135,51
2017-02-01 13:41:00,13:41:07,13:41:50,42855,42906,19130.0,73,19135.0,47,19135.0,19135.0,19130.0,19135.0,38,28,19130,60,19135,48
2017-02-01 13:42:00,13:42:11,13:42:59,42911,43000,19130.0,70,19135.0,54,19135.0,19135.0,19125.0,19125.0,105,-79,19125,17,19130,48
2017-02-01 13:43:00,13:43:00,13:43:47,43007,43175,19125.0,16,19130.0,57,19125.0,19125.0,19110.0,19110.0,148,-100,19110,46,19115,54
2017-02-01 13:44:00,13:44:14,13:44:55,43190,43296,19110.0,47,19115.0,58,19115.0,19120.0,19115.0,19120.0,82,72,19115,62,19120,8
2017-02-01 13:45:00,13:45:00,13:45:44,43303,43420,19115.0,62,19120.0,29,19120.0,19120.0,19115.0,19115.0,104,-35,19115,54,19120,35
2017-02-01 13:46:00,13:46:01,13:46:50,43427,43517,19115.0,60,19120.0,30,19120.0,19120.0,19110.0,19115.0,92,-58,19115,40,19120,52
2017-02-01 13:47:00,13:47:08,13:47:47,43526,43587,19115.0,41,19120.0,53,19120.0,19120.0,19110.0,19110.0,51,-47,19110,18,19115,40
2017-02-01 13:48:00,13:48:06,13:48:58,43600,43701,19110.0,27,19115.0,41,19115.0,19115.0,19110.0,19115.0,76,-54,19115,11,19120,57
2017-02-01 13:49:00,13:49:00,13:49:56,43706,43828,19115.0,9,19120.0,70,19115.0,19120.0,19115.0,19115.0,105,61,19115,52,19120,62
2017-02-01 13:50:00,13:50:02,13:50:58,43834,43890,19115.0,56,19120.0,67,19120.0,19120.0,19115.0,19115.0,85,-43,19115,1,19115,3
2017-02-01 13:51:00,13:51:00,13:51:59,43894,43991,19110.0,76,19120.0,62,19120.0,19120.0,19115.0,19120.0,63,29,19120,35,19125,51
2017-02-01 13:52:00,13:52:16,13:52:56,44016,44115,19120.0,58,19125.0,43,19120.0,19130.0,19120.0,19125.0,96,8,19120,45,19125,34
2017-02-01 13:53:00,13:53:01,13:53:58,44121,44436,19120.0,48,19125.0,36,19125.0,19135.0,19120.0,19125.0,374,-42,19125,25,19130,45
2017-02-01 13:54:00,13:54:21,13:54:57,44454,44507,19125.0,73,19130.0,56,19125.0,19130.0,19125.0,19125.0,33,19,19125,66,19130,40
2017-02-01 13:55:00,13:55:02,13:55:59,44518,44717,19125.0,66,19130.0,50,19125.0,19130.0,19115.0,19115.0,262,-188,19115,48,19120,57
2017-02-01 13:56:00,13:56:03,13:56:52,44721,44938,19115.0,48,19120.0,59,19115.0,19125.0,19115.0,19120.0,369,13,19120,12,19125,86
2017-02-01 13:57:00,13:57:04,13:57:51,44961,45163,19120.0,57,19125.0,69,19125.0,19125.0,19115.0,19120.0,285,-183,19115,51,19120,80
2017-02-01 13:58:00,13:58:01,13:58:59,45178,45367,19115.0,55,19120.0,70,19115.0,19125.0,19115.0,19125.0,224,80,19125,11,19130,83
2017-02-01 13:59:00,13:59:00,13:59:59,45371,45852,19125.0,11,19130.0,86,19125.0,19135.0,19125.0,19130.0,789,165,19125,41,19130,40
2017-02-01 14:00:00,14:00:00,14:00:59,45853,46523,19125.0,81,19130.0,48,19130.0,19135.0,19120.0,19130.0,1305,147,19125,102,19130,63
2017-02-01 14:01:00,14:01:00,14:01:50,46524,46740,19125.0,112,19130.0,102,19130.0,19135.0,19125.0,19130.0,435,-59,19125,78,19130,153
2017-02-01 14:02:00,14:02:00,14:02:59,46749,47375,19125.0,68,19130.0,133,19130.0,19145.0,19115.0,19145.0,1336,518,19140,58,19145,86
2017-02-01 14:03:00,14:03:00,14:03:59,47378,47608,19140.0,58,19145.0,86,19145.0,19145.0,19140.0,19145.0,293,-49,19140,92,19145,62
2017-02-01 14:04:00,14:04:00,14:04:59,47610,48047,19140.0,90,19145.0,62,19145.0,19165.0,19140.0,19160.0,805,447,19160,26,19165,86
2017-02-01 14:05:00,14:05:02,14:05:56,48053,48269,19160.0,26,19165.0,86,19160.0,19165.0,19155.0,19165.0,279,-69,19160,51,19165,67
2017-02-01 14:06:00,14:06:01,14:06:59,48274,48394,19160.0,48,19165.0,70,19160.0,19165.0,19150.0,19160.0,149,-117,19155,88,19160,38
2017-02-01 14:07:00,14:07:01,14:07:53,48401,48718,19155.0,85,19160.0,42,19160.0,19180.0,19160.0,19170.0,547,252,19170,32,19175,40
2017-02-01 14:08:00,14:08:02,14:08:46,48736,48975,19170.0,32,19175.0,31,19170.0,19175.0,19165.0,19175.0,367,-111,19170,55,19175,20
2017-02-01 14:09:00,14:09:01,14:09:56,48983,49164,19170.0,60,19175.0,37,19175.0,19180.0,19170.0,19170.0,273,7,19165,96,19175,49
