,ST,ET,sidx,eidx,bB,bBS,bA,bAS,O,H,L,C,V,OF,eB,eBS,eA,eAS
2017-02-21 08:00:00,08:00:00,08:00:58,1920,2210,19260.0,41,19265.0,6,19265.0,19270.0,19250.0,19255.0,307,-26,19255,16,19260,59
2017-02-21 08:01:00,08:01:00,08:01:54,2218,2396,19255.0,21,19260.0,53,19255.0,19255.0,19250.0,19250.0,178,-109,19250,29,19255,47
2017-02-21 08:02:00,08:02:03,08:02:59,2408,2561,19250.0,40,19255.0,46,19250.0,19260.0,19250.0,19260.0,144,28,19255,46,19260,10
2017-02-21 08:03:00,08:03:00,08:03:59,2564,2705,19255.0,46,19260.0,10,19260.0,19270.0,19260.0,19265.0,116,30,19260,37,19265,46
2017-02-21 08:04:00,08:04:00,08:04:58,2709,2892,19260.0,36,19265.0,46,19265.0,19270.0,19265.0,19270.0,158,132,19270,38,19275,29
2017-02-21 08:05:00,08:05:00,08:05:52,2897,3115,19270.0,39,19275.0,38,19275.0,19285.0,19275.0,19285.0,200,90,19280,41,19285,42
2017-02-21 08:06:00,08:06:14,08:06:48,3135,3289,19280.0,56,19285.0,40,19280.0,19285.0,19275.0,19280.0,228,-55,19280,31,19285,48
2017-02-21 08:07:00,08:07:01,08:07:53,3299,3502,19280.0,60,19285.0,33,19285.0,19285.0,19280.0,19280.0,167,103,19280,64,19285,49
2017-02-21 08:08:00,08:08:00,08:08:54,3516,3686,19280.0,64,19285.0,44,19285.0,19285.0,19280.0,19285.0,136,2,19280,94,19285,21
2017-02-21 08:09:00,08:09:00,08:09:55,3695,3793,19280.0,76,19285.0,39,19285.0,19285.0,19280.0,19280.0,45,-9,19280,37,19285,53
2017-02-21 08:10:00,08:10:00,08:10:36,3800,3905,19280.0,34,19285.0,76,19285.0,19285.0,19280.0,19285.0,125,-9,19280,59,19285,46
2017-02-21 08:11:00,08:11:00,08:11:48,3925,4071,19280.0,45,19285.0,61,19285.0,19285.0,19280.0,19280.0,131,7,19275,85,19280,18
2017-02-21 08:12:00,08:12:00,08:12:57,4083,4186,19275.0,86,19280.0,22,19280.0,19280.0,19275.0,19280.0,88,74,19280,33,19285,76
2017-02-21 08:13:00,08:13:07,08:13:58,4196,4294,19280.0,46,19285.0,65,19280.0,19285.0,19280.0,19285.0,141,131,19285,18,19290,89
2017-02-21 08:14:00,08:14:06,08:14:43,4308,4356,19285.0,58,19290.0,76,19285.0,19290.0,19285.0,19285.0,34,-24,19285,33,19290,80
2017-02-21 08:15:00,08:15:09,08:15:50,4375,4525,19285.0,57,19290.0,66,19290.0,19290.0,19285.0,19285.0,156,56,19285,34,19290,54
2017-02-21 08:16:00,08:16:00,08:16:00,4544,4545,19285.0,54,19290.0,32,19290.0,19290.0,19290.0,19290.0,3,3,19285,55,19290,29
2017-02-21 08:17:00,08:17:13,08:17:48,4574,4601,19285.0,55,19290.0,55,19290.0,19290.0,19290.0,19290.0,4,4,19285,54,19290,65
2017-02-21 08:18:00,08:18:01,08:18:19,4612,4663,19285.0,62,19290.0,53,19290.0,19290.0,19285.0,19285.0,57,-53,19285,33,19290,68
2017-02-21 08:19:00,08:19:08,08:19:55,4702,4756,19285.0,58,19290.0,57,19285.0,19285.0,19280.0,19280.0,38,-24,19280,70,19285,51
2017-02-21 08:20:00,08:20:00,08:20:44,4765,4820,19280.0,88,19285.0,43,19285.0,19285.0,19285.0,19285.0,54,34,19285,24,19290,62
2017-02-21 08:21:00,08:21:01,08:21:55,4838,4938,19285.0,27,19290.0,66,19285.0,19285.0,19280.0,19280.0,86,-86,19275,112,19280,13
2017-02-21 08:22:00,08:22:20,08:22:20,4964,4964,19275.0,117,19280.0,12,19280.0,19280.0,19280.0,19280.0,1,1,19275,118,19280,9
2017-02-21 08:23:00,08:23:24,08:23:55,5009,5133,19275.0,84,19280.0,71,19275.0,19275.0,19275.0,19275.0,129,-61,19275,12,19280,77
2017-02-21 08:24:00,08:24:12,08:24:40,5149,5216,19275.0,32,19280.0,78,19275.0,19275.0,19275.0,19275.0,54,-14,19275,40,19280,69
2017-02-21 08:25:00,08:25:25,08:25:54,5240,5344,19275.0,54,19280.0,45,19280.0,19285.0,19280.0,19285.0,110,96,19285,4,19290,68
2017-02-21 08:26:00,08:26:21,08:26:50,5368,5460,19285.0,37,19290.0,68,19290.0,19290.0,19280.0,19280.0,118,-114,19275,55,19280,18
2017-02-21 08:27:00,08:27:32,08:27:32,5489,5503,19275.0,59,19280.0,37,19280.0,19280.0,19280.0,19280.0,21,21,19275,71,19280,20
2017-02-21 08:28:00,08:28:17,08:28:57,5523,5581,19275.0,61,19280.0,59,19275.0,19275.0,19270.0,19275.0,75,-67,19270,58,19275,57
2017-02-21 08:29:00,08:29:15,08:29:51,5587,5684,19270.0,63,19275.0,68,19270.0,19280.0,19270.0,19280.0,156,70,19280,22,19285,104
2017-02-21 08:30:00,08:30:02,08:30:06,5695,5723,19280.0,21,19285.0,102,19280.0,19280.0,19280.0,19280.0,49,19,19280,25,19285,46
2017-02-21 08:31:00,08:31:00,08:31:00,0,0,0.0,0,0.0,0,19280.0,19280.0,19280.0,19280.0,0,0,0,0,0,0
2017-02-21 08:32:00,08:32:07,08:32:44,5787,5864,19280.0,57,19285.0,42,19285.0,19285.0,19285.0,19285.0,69,43,19280,61,19285,17
2017-02-21 08:33:00,08:33:08,08:33:36,5887,5916,19280.0,48,19285.0,44,19285.0,19290.0,19285.0,19290.0,18,18,19285,52,19290,31
2017-02-21 08:34:00,08:34:10,08:34:33,5930,5953,19285.0,43,19290.0,43,19290.0,19290.0,19285.0,19285.0,5,1,19285,50,19290,52
2017-02-21 08:35:00,08:35:42,08:35:59,5980,5989,19285.0,59,19290.0,44,19290.0,19290.0,19290.0,19290.0,6,6,19285,52,19290,35
2017-02-21 08:36:00,08:36:00,08:36:00,5991,5991,19285.0,54,19290.0,35,19290.0,19290.0,19290.0,19290.0,1,1,19285,52,19290,33
2017-02-21 08:37:00,08:37:23,08:37:57,6037,6127,19285.0,47,19290.0,55,19285.0,19290.0,19285.0,19290.0,70,-32,19285,43,19290,46
2017-02-21 08:38:00,08:38:00,08:38:00,0,0,0.0,0,0.0,0,19290.0,19290.0,19290.0,19290.0,0,0,0,0,0,0
2017-02-21 08:39:00,08:39:12,08:39:12,6197,6199,19285.0,45,19290.0,47,19290.0,19290.0,19285.0,19285.0,3,1,19285,44,19290,46
2017-02-21 08:40:00,08:40:18,08:40:51,6237,6344,19285.0,31,19290.0,58,19285.0,19285.0,19280.0,19280.0,84,-76,19275,85,19280,44
2017-02-21 08:41:00,08:41:37,08:41:38,6378,6406,19275.0,92,19280.0,38,19280.0,19280.0,19280.0,19280.0,37,37,19275,94,19285,54
2017-02-21 08:42:00,08:42:00,08:42:00,0,0,0.0,0,0.0,0,19280.0,19280.0,19280.0,19280.0,0,0,0,0,0,0
2017-02-21 08:43:00,08:43:23,08:43:40,6471,6530,19275.0,95,19280.0,23,19280.0,19280.0,19280.0,19280.0,32,-3,19275,91,19280,23
2017-02-21 08:44:00,08:44:41,08:44:41,6563,6563,19275.0,95,19280.0,34,19280.0,19280.0,19280.0,19280.0,1,1,19275,94,19280,32
2017-02-21 08:45:00,08:45:16,08:45:52,6593,6645,19275.0,87,19280.0,41,19275.0,19275.0,19275.0,19275.0,47,-47,19275,34,19280,59
2017-02-21 08:46:00,08:46:28,08:46:45,6663,6721,19275.0,39,19280.0,62,19280.0,19280.0,19280.0,19280.0,59,11,19275,54,19280,8
2017-02-21 08:47:00,08:47:20,08:47:32,6750,6784,19275.0,33,19280.0,43,19275.0,19275.0,19270.0,19270.0,28,-28,19270,49,19275,42
2017-02-21 08:48:00,08:48:01,08:48:35,6797,6866,19270.0,50,19275.0,42,19275.0,19280.0,19275.0,19280.0,60,60,19280,26,19285,76
2017-02-21 08:49:00,08:49:55,08:49:59,6900,6914,19280.0,25,19285.0,71,19280.0,19280.0,19280.0,19280.0,23,-23,19280,14,19285,68
2017-02-21 08:50:00,08:50:00,08:50:46,6917,6962,19280.0,14,19285.0,68,19280.0,19280.0,19280.0,19280.0,27,-27,19275,39,19280,26
2017-02-21 08:51:00,08:51:37,08:51:37,6997,6997,19275.0,52,19280.0,36,19275.0,19275.0,19275.0,19275.0,1,-1,19275,50,19280,37
2017-02-21 08:52:00,08:52:03,08:52:58,7018,7114,19275.0,20,19280.0,53,19275.0,19280.0,19275.0,19280.0,64,28,19280,9,19285,62
2017-02-21 08:53:00,08:53:09,08:53:29,7124,7153,19280.0,13,19285.0,61,19280.0,19280.0,19280.0,19280.0,33,7,19280,12,19285,61
2017-02-21 08:54:00,08:54:00,08:54:00,0,0,0.0,0,0.0,0,19280.0,19280.0,19280.0,19280.0,0,0,0,0,0,0
2017-02-21 08:55:00,08:55:00,08:55:00,0,0,0.0,0,0.0,0,19280.0,19280.0,19280.0,19280.0,0,0,0,0,0,0
2017-02-21 08:56:00,08:56:10,08:56:17,7254,7283,19280.0,28,19285.0,64,19280.0,19280.0,19280.0,19280.0,30,-28,19275,57,19280,17
2017-02-21 08:57:00,08:57:05,08:57:55,7331,7422,19275.0,45,19280.0,33,19280.0,19290.0,19280.0,19290.0,116,116,19285,45,19290,18
2017-02-21 08:58:00,08:58:03,08:58:52,7429,7556,19285.0,45,19290.0,28,19285.0,19285.0,19285.0,19285.0,119,-95,19285,3,19290,54
2017-02-21 08:59:00,08:59:01,08:59:36,7565,7681,19285.0,5,19290.0,54,19285.0,19290.0,19285.0,19290.0,95,83,19285,38,19290,16
2017-02-21 09:00:00,09:00:09,09:00:28,7715,7775,19285.0,49,19290.0,36,19290.0,19290.0,19290.0,19290.0,80,32,19285,50,19290,13
2017-02-21 09:01:00,09:01:04,09:01:26,7818,7847,19285.0,36,19290.0,28,19290.0,19290.0,19285.0,19285.0,11,-9,19285,37,19290,83
2017-02-21 09:02:00,09:02:44,09:02:44,7874,7874,19285.0,32,19290.0,87,19285.0,19285.0,19285.0,19285.0,1,-1,19285,31,19290,86
2017-02-21 09:03:00,09:03:04,09:03:53,7881,7977,19285.0,28,19290.0,86,19290.0,19290.0,19285.0,19285.0,72,-4,19285,17,19290,102
2017-02-21 09:04:00,09:04:01,09:04:57,7981,8039,19285.0,31,19290.0,95,19285.0,19285.0,19280.0,19285.0,35,1,19285,17,19290,95
2017-02-21 09:05:00,09:05:14,09:05:57,8048,8114,19285.0,36,19290.0,91,19285.0,19285.0,19285.0,19285.0,79,-79,19280,59,19285,23
2017-02-21 09:06:00,09:06:33,09:06:33,8140,8141,19280.0,62,19285.0,53,19280.0,19280.0,19280.0,19280.0,2,-2,19280,60,19285,52
2017-02-21 09:07:00,09:07:10,09:07:38,8158,8176,19280.0,62,19285.0,50,19280.0,19285.0,19280.0,19285.0,15,13,19280,48,19285,33
2017-02-21 09:08:00,09:08:51,09:08:57,8199,8226,19280.0,60,19285.0,27,19285.0,19285.0,19285.0,19285.0,40,16,19280,106,19285,12
2017-02-21 09:09:00,09:09:36,09:09:36,8240,8244,19280.0,101,19285.0,7,19285.0,19285.0,19285.0,19285.0,5,5,19285,28,19290,57
2017-02-21 09:10:00,09:10:00,09:10:00,0,0,0.0,0,0.0,0,19285.0,19285.0,19285.0,19285.0,0,0,0,0,0,0
2017-02-21 09:11:00,09:11:39,09:11:50,8318,8350,19285.0,23,19290.0,54,19285.0,19290.0,19285.0,19285.0,22,-20,19280,100,19285,16
2017-02-21 09:12:00,09:12:48,09:12:56,8373,8405,19280.0,100,19285.0,23,19285.0,19285.0,19285.0,19285.0,34,26,19285,24,19290,57
2017-02-21 09:13:00,09:13:11,09:13:39,8417,8439,19285.0,10,19290.0,57,19285.0,19285.0,19285.0,19285.0,27,5,19285,16,19290,57
2017-02-21 09:14:00,09:14:33,09:14:56,8474,8504,19285.0,14,19290.0,56,19285.0,19285.0,19285.0,19285.0,15,-7,19280,100,19285,6
2017-02-21 09:15:00,09:15:00,09:15:57,8507,8782,19280.0,100,19285.0,6,19285.0,19315.0,19285.0,19315.0,310,278,19315,17,19320,103
2017-02-21 09:16:00,09:16:00,09:16:49,8788,9083,19315.0,32,19320.0,100,19320.0,19320.0,19315.0,19315.0,431,-99,19310,52,19315,33
2017-02-21 09:17:00,09:17:05,09:17:34,9095,9213,19310.0,53,19315.0,19,19315.0,19315.0,19315.0,19315.0,88,60,19315,17,19320,87
2017-02-21 09:18:00,09:18:06,09:18:46,9236,9382,19315.0,69,19320.0,69,19315.0,19315.0,19315.0,19315.0,166,-83,19310,59,19315,10
2017-02-21 09:19:00,09:19:36,09:19:52,9428,9509,19310.0,80,19315.0,38,19315.0,19315.0,19305.0,19305.0,109,-81,19305,19,19310,50
2017-02-21 09:20:00,09:20:25,09:20:59,9539,9671,19305.0,40,19310.0,65,19305.0,19320.0,19305.0,19315.0,143,107,19310,66,19315,21
2017-02-21 09:21:00,09:21:00,09:21:06,9674,9701,19310.0,66,19315.0,21,19315.0,19315.0,19315.0,19315.0,29,-9,19315,15,19320,84
2017-02-21 09:22:00,09:22:15,09:22:56,9743,9874,19315.0,38,19320.0,66,19320.0,19320.0,19315.0,19315.0,195,91,19310,67,19315,16
2017-02-21 09:23:00,09:23:13,09:23:33,9888,9957,19310.0,73,19315.0,35,19315.0,19315.0,19315.0,19315.0,75,43,19310,69,19315,19
2017-02-21 09:24:00,09:24:02,09:24:55,9976,10077,19310.0,71,19315.0,26,19315.0,19315.0,19315.0,19315.0,61,9,19315,8,19320,79
2017-02-21 09:25:00,09:25:00,09:25:57,10084,10210,19315.0,10,19320.0,79,19315.0,19315.0,19310.0,19315.0,80,12,19310,77,19320,82
2017-02-21 09:26:00,09:26:00,09:26:58,10216,10340,19310.0,70,19315.0,29,19315.0,19315.0,19315.0,19315.0,79,21,19315,13,19320,73
2017-02-21 09:27:00,09:27:29,09:27:34,10379,10408,19315.0,25,19320.0,72,19315.0,19315.0,19315.0,19315.0,29,-3,19315,11,19320,75
2017-02-21 09:28:00,09:28:42,09:28:58,10443,10519,19315.0,37,19320.0,64,19315.0,19315.0,19315.0,19315.0,78,-2,19315,1,19315,5
2017-02-21 09:29:00,09:29:02,09:29:22,10524,10542,19310.0,61,19315.0,8,19315.0,19320.0,19315.0,19320.0,2,2,19315,32,19320,64
2017-02-21 09:30:00,09:30:28,09:30:55,10582,10700,19315.0,56,19320.0,62,19320.0,19330.0,19320.0,19325.0,112,80,19325,22,19325,30
2017-02-21 09:31:00,09:31:04,09:31:56,10709,10926,19320.0,67,19325.0,35,19325.0,19325.0,19325.0,19325.0,191,17,19320,67,19325,6
2017-02-21 09:32:00,09:32:02,09:32:37,10934,11038,19320.0,71,19325.0,6,19325.0,19330.0,19325.0,19330.0,105,88,19325,59,19330,13
2017-02-21 09:33:00,09:33:01,09:33:56,11057,11137,19325.0,57,19330.0,40,19330.0,19335.0,19325.0,19335.0,85,75,19335,19,19340,104
2017-02-21 09:34:00,09:34:01,09:34:51,11151,11415,19335.0,43,19340.0,96,19335.0,19350.0,19335.0,19350.0,375,299,19345,78,19350,24
2017-02-21 09:35:00,09:35:28,09:35:53,11461,11803,19345.0,124,19350.0,49,19345.0,19365.0,19345.0,19355.0,692,326,19355,53,19360,33
2017-02-21 09:36:00,09:36:00,09:36:57,11819,12147,19355.0,143,19360.0,35,19360.0,19360.0,19340.0,19345.0,430,-71,19340,78,19345,40
2017-02-21 09:37:00,09:37:05,09:37:53,12157,12335,19340.0,82,19345.0,37,19345.0,19345.0,19340.0,19345.0,246,-128,19340,49,19345,52
2017-02-21 09:38:00,09:38:04,09:38:49,12357,12469,19340.0,62,19345.0,50,19345.0,19345.0,19345.0,19345.0,106,22,19340,55,19345,2
2017-02-21 09:39:00,09:39:09,09:39:53,12493,12574,19340.0,62,19345.0,30,19345.0,19350.0,19345.0,19350.0,78,36,19345,51,19350,56
2017-02-21 09:40:00,09:40:00,09:40:59,12583,12815,19345.0,50,19350.0,57,19345.0,19345.0,19335.0,19340.0,235,-93,19335,90,19340,7
2017-02-21 09:41:00,09:41:03,09:41:56,12819,12893,19335.0,89,19340.0,8,19340.0,19340.0,19335.0,19335.0,52,-8,19335,60,19340,69
2017-02-21 09:42:00,09:42:08,09:42:41,12901,12990,19335.0,42,19340.0,69,19335.0,19340.0,19335.0,19340.0,110,32,19335,49,19340,35
2017-02-21 09:43:00,09:43:12,09:43:54,13006,13097,19335.0,69,19340.0,43,19340.0,19340.0,19340.0,19340.0,86,50,19340,19,19345,57
2017-02-21 09:44:00,09:44:05,09:44:24,13102,13159,19340.0,19,19345.0,57,19340.0,19340.0,19340.0,19340.0,56,18,19340,8,19345,60
2017-02-21 09:45:00,09:45:00,09:45:02,13195,13202,19340.0,61,19345.0,26,19345.0,19345.0,19345.0,19345.0,8,8,19340,64,19345,21
2017-02-21 09:46:00,09:46:02,09:46:56,13224,13300,19340.0,66,19345.0,56,19340.0,19345.0,19335.0,19340.0,53,-37,19335,71,19340,16
2017-02-21 09:47:00,09:47:00,09:47:00,0,0,0.0,0,0.0,0,19340.0,19340.0,19340.0,19340.0,0,0,0,0,0,0
2017-02-21 09:48:00,09:48:06,09:48:32,13329,13398,19335.0,64,19340.0,53,19335.0,19340.0,19335.0,19335.0,75,9,19330,73,19335,18
2017-02-21 09:49:00,09:49:30,09:49:55,13428,13478,19330.0,69,19335.0,26,19335.0,19335.0,19330.0,19330.0,63,-37,19330,25,19335,37
2017-02-21 09:50:00,09:50:02,09:50:36,13482,13499,19330.0,52,19335.0,37,19330.0,19330.0,19330.0,19330.0,3,-3,19330,47,19335,38
2017-02-21 09:51:00,09:51:19,09:51:20,13516,13565,19330.0,49,19335.0,36,19330.0,19335.0,19330.0,19335.0,83,-81,19330,36,19335,42
2017-02-21 09:52:00,09:52:28,09:52:58,13615,13666,19330.0,28,19335.0,94,19330.0,19335.0,19330.0,19330.0,44,-18,19330,26,19335,85
2017-02-21 09:53:00,09:53:49,09:53:49,13700,13717,19330.0,89,19335.0,48,19335.0,19335.0,19335.0,19335.0,45,45,19335,58,19340,73
2017-02-21 09:54:00,09:54:05,09:54:55,13733,13798,19335.0,50,19340.0,79,19335.0,19335.0,19330.0,19335.0,42,-32,19330,64,19335,28
2017-02-21 09:55:00,09:55:02,09:55:38,13805,13837,19330.0,64,19335.0,47,19335.0,19335.0,19330.0,19330.0,4,2,19330,77,19335,35
2017-02-21 09:56:00,09:56:00,09:56:00,0,0,0.0,0,0.0,0,19330.0,19330.0,19330.0,19330.0,0,0,0,0,0,0
2017-02-21 09:57:00,09:57:27,09:57:27,13876,13877,19330.0,79,19335.0,40,19335.0,19335.0,19335.0,19335.0,2,2,19330,77,19335,37
2017-02-21 09:58:00,09:58:30,09:58:30,13893,13929,19330.0,81,19335.0,39,19330.0,19330.0,19330.0,19330.0,69,-69,19330,23,19335,61
2017-02-21 09:59:00,09:59:51,09:59:51,13978,13978,19330.0,39,19335.0,64,19330.0,19330.0,19330.0,19330.0,1,-1,19330,46,19335,65
2017-02-21 10:00:00,10:00:20,10:00:20,14005,14005,19330.0,69,19335.0,34,19335.0,19335.0,19335.0,19335.0,1,1,19330,70,19335,32
2017-02-21 10:01:00,10:01:09,10:01:16,14032,14041,19330.0,62,19335.0,52,19330.0,19330.0,19330.0,19330.0,5,-5,19330,29,19335,72
2017-02-21 10:02:00,10:02:11,10:02:43,14085,14136,19330.0,70,19335.0,38,19335.0,19335.0,19335.0,19335.0,57,31,19330,71,19335,15
2017-02-21 10:03:00,10:03:13,10:03:56,14147,14197,19330.0,69,19335.0,29,19335.0,19335.0,19330.0,19330.0,57,-55,19330,44,19335,48
2017-02-21 10:04:00,10:04:13,10:04:13,14202,14210,19330.0,42,19335.0,50,19335.0,19335.0,19335.0,19335.0,11,11,19330,59,19335,15
2017-02-21 10:05:00,10:05:12,10:05:43,14246,14348,19330.0,60,19335.0,28,19330.0,19335.0,19330.0,19335.0,145,-69,19330,68,19335,20
2017-02-21 10:06:00,10:06:21,10:06:28,14379,14415,19330.0,58,19335.0,40,19335.0,19335.0,19335.0,19335.0,57,57,19330,57,19335,24
2017-02-21 10:07:00,10:07:00,10:07:00,0,0,0.0,0,0.0,0,19335.0,19335.0,19335.0,19335.0,0,0,0,0,0,0
2017-02-21 10:08:00,10:08:12,10:08:26,14448,14483,19330.0,58,19335.0,49,19330.0,19330.0,19330.0,19330.0,55,-55,19330,42,19335,55
2017-02-21 10:09:00,10:09:16,10:09:16,14521,14521,19330.0,44,19335.0,63,19330.0,19330.0,19330.0,19330.0,1,-1,19330,43,19335,56
2017-02-21 10:10:00,10:10:26,10:10:58,14561,14619,19330.0,49,19335.0,63,19330.0,19330.0,19325.0,19325.0,50,-42,19325,42,19330,51
2017-02-21 10:11:00,10:11:44,10:11:47,14648,14705,19325.0,35,19330.0,65,19325.0,19330.0,19325.0,19325.0,83,-79,19320,63,19330,66
2017-02-21 10:12:00,10:12:02,10:12:53,14726,14890,19325.0,52,19330.0,37,19330.0,19335.0,19330.0,19335.0,214,72,19335,46,19340,85
2017-02-21 10:13:00,10:13:02,10:13:30,14899,14990,19335.0,40,19340.0,85,19335.0,19335.0,19335.0,19335.0,95,7,19330,58,19340,85
2017-02-21 10:14:00,10:14:01,10:14:27,15013,15114,19330.0,39,19335.0,43,19330.0,19330.0,19330.0,19330.0,123,-77,19325,62,19330,17
2017-02-21 10:15:00,10:15:46,10:15:46,15164,15164,19325.0,43,19330.0,47,19325.0,19325.0,19325.0,19325.0,1,-1,19325,41,19330,48
2017-02-21 10:16:00,10:16:00,10:16:00,0,0,0.0,0,0.0,0,19325.0,19325.0,19325.0,19325.0,0,0,0,0,0,0
2017-02-21 10:17:00,10:17:11,10:17:45,15180,15258,19325.0,26,19330.0,49,19325.0,19325.0,19325.0,19325.0,97,-97,19325,7,19330,58
2017-02-21 10:18:00,10:18:30,10:18:30,15269,15278,19325.0,35,19330.0,58,19330.0,19330.0,19330.0,19330.0,10,10,19325,44,19330,51
2017-02-21 10:19:00,10:19:56,10:19:59,15304,15334,19325.0,53,19330.0,38,19330.0,19330.0,19330.0,19330.0,48,48,19330,6,19335,71
2017-02-21 10:20:00,10:20:00,10:20:48,15335,15399,19325.0,64,19330.0,22,19330.0,19330.0,19330.0,19330.0,41,11,19325,56,19330,28
2017-02-21 10:21:00,10:21:00,10:21:00,0,0,0.0,0,0.0,0,19330.0,19330.0,19330.0,19330.0,0,0,0,0,0,0
2017-02-21 10:22:00,10:22:00,10:22:03,15433,15453,19325.0,42,19330.0,42,19330.0,19330.0,19330.0,19330.0,18,13,19325,56,19330,22
2017-02-21 10:23:00,10:23:45,10:23:45,15494,15494,19325.0,69,19330.0,52,19330.0,19330.0,19330.0,19330.0,1,1,19325,68,19330,51
2017-02-21 10:24:00,10:24:11,10:24:59,15499,15528,19325.0,68,19330.0,51,19325.0,19325.0,19325.0,19325.0,21,-21,19325,44,19330,50
2017-02-21 10:25:00,10:25:13,10:25:13,15546,15551,19325.0,66,19330.0,32,19330.0,19330.0,19325.0,19325.0,10,8,19325,59,19330,42
2017-02-21 10:26:00,10:26:35,10:26:49,15580,15604,19325.0,73,19330.0,51,19330.0,19330.0,19325.0,19325.0,18,-14,19325,62,19330,54
2017-02-21 10:27:00,10:27:07,10:27:56,15610,15692,19325.0,64,19330.0,54,19330.0,19330.0,19325.0,19325.0,69,29,19325,56,19330,40
2017-02-21 10:28:00,10:28:20,10:28:52,15708,15735,19325.0,66,19330.0,38,19330.0,19330.0,19330.0,19330.0,5,5,19325,59,19330,35
2017-02-21 10:29:00,10:29:05,10:29:57,15743,15793,19325.0,61,19330.0,35,19330.0,19330.0,19330.0,19330.0,12,12,19325,71,19330,33
2017-02-21 10:30:00,10:30:05,10:30:53,15807,15865,19325.0,58,19330.0,57,19325.0,19325.0,19320.0,19325.0,43,-25,19320,69,19325,18
2017-02-21 10:31:00,10:31:05,10:31:58,15874,15968,19320.0,71,19325.0,22,19325.0,19335.0,19325.0,19335.0,92,92,19330,53,19335,40
2017-02-21 10:32:00,10:32:02,10:32:44,15972,16084,19330.0,53,19335.0,43,19335.0,19335.0,19335.0,19335.0,130,64,19330,53,19335,35
2017-02-21 10:33:00,10:33:20,10:33:55,16094,16158,19330.0,57,19335.0,22,19335.0,19335.0,19330.0,19330.0,53,-37,19330,16,19335,47
2017-02-21 10:34:00,10:34:00,10:34:37,16161,16236,19330.0,16,19335.0,47,19330.0,19330.0,19330.0,19330.0,74,0,19330,33,19335,53
2017-02-21 10:35:00,10:35:02,10:35:17,16242,16259,19330.0,26,19335.0,53,19330.0,19330.0,19330.0,19330.0,15,-15,19325,47,19335,56
2017-02-21 10:36:00,10:36:01,10:36:01,16280,16292,19330.0,8,19335.0,59,19330.0,19330.0,19330.0,19330.0,13,-3,19325,51,19335,55
2017-02-21 10:37:00,10:37:35,10:37:35,16322,16322,19330.0,38,19335.0,52,19335.0,19335.0,19335.0,19335.0,1,1,19330,39,19335,50
2017-02-21 10:38:00,10:38:48,10:38:48,16333,16333,19330.0,44,19335.0,53,19335.0,19335.0,19335.0,19335.0,1,1,19330,43,19335,52
2017-02-21 10:39:00,10:39:44,10:39:51,16344,16352,19330.0,48,19335.0,52,19335.0,19335.0,19335.0,19335.0,3,3,19330,47,19335,56
2017-02-21 10:40:00,10:40:03,10:40:39,16357,16383,19330.0,46,19335.0,57,19335.0,19335.0,19335.0,19335.0,8,8,19330,43,19335,54
2017-02-21 10:41:00,10:41:01,10:41:57,16390,16613,19330.0,43,19335.0,56,19335.0,19340.0,19330.0,19330.0,263,135,19330,9,19335,38
2017-02-21 10:42:00,10:42:24,10:42:24,16638,16647,19330.0,20,19335.0,49,19330.0,19330.0,19330.0,19330.0,20,-20,19325,40,19330,18
2017-02-21 10:43:00,10:43:10,10:43:26,16670,16761,19325.0,36,19330.0,46,19325.0,19325.0,19325.0,19325.0,107,-71,19325,4,19330,50
2017-02-21 10:44:00,10:44:40,10:44:54,16788,16817,19325.0,40,19330.0,43,19330.0,19330.0,19330.0,19330.0,36,36,19325,44,19330,44
2017-02-21 10:45:00,10:45:01,10:45:20,16821,16834,19325.0,44,19330.0,45,19330.0,19330.0,19325.0,19325.0,6,2,19325,40,19330,44
2017-02-21 10:46:00,10:46:01,10:46:43,16851,17015,19325.0,43,19330.0,42,19330.0,19340.0,19330.0,19335.0,162,67,19335,24,19340,50
2017-02-21 10:47:00,10:47:00,10:47:00,0,0,0.0,0,0.0,0,19335.0,19335.0,19335.0,19335.0,0,0,0,0,0,0
2017-02-21 10:48:00,10:48:25,10:48:54,17048,17090,19335.0,30,19340.0,48,19335.0,19335.0,19335.0,19335.0,38,-38,19330,39,19335,22
2017-02-21 10:49:00,10:49:14,10:49:59,17096,17162,19330.0,54,19335.0,20,19335.0,19340.0,19335.0,19340.0,62,54,19340,13,19345,67
2017-02-21 10:50:00,10:50:08,10:50:47,17176,17190,19340.0,31,19345.0,64,19345.0,19345.0,19345.0,19345.0,2,2,19340,33,19345,68
2017-02-21 10:51:00,10:51:04,10:51:53,17198,17275,19340.0,37,19345.0,71,19345.0,19345.0,19345.0,19345.0,95,85,19340,42,19345,35
2017-02-21 10:52:00,10:52:04,10:52:50,17282,17359,19340.0,46,19345.0,30,19345.0,19345.0,19345.0,19345.0,45,45,19345,25,19350,40
2017-02-21 10:53:00,10:53:00,10:53:56,17360,17649,19340.0,55,19345.0,21,19345.0,19360.0,19345.0,19350.0,298,-34,19345,30,19350,40
2017-02-21 10:54:00,10:54:32,10:54:53,17671,17698,19345.0,29,19350.0,49,19345.0,19345.0,19340.0,19345.0,30,-26,19340,44,19350,33
2017-02-21 10:55:00,10:55:05,10:55:51,17701,17790,19340.0,46,19345.0,28,19345.0,19350.0,19345.0,19350.0,98,88,19345,45,19350,40
2017-02-21 10:56:00,10:56:21,10:56:32,17807,17838,19345.0,45,19350.0,43,19345.0,19350.0,19345.0,19350.0,25,20,19350,33,19355,32
2017-02-21 10:57:00,10:57:06,10:57:52,17854,17906,19350.0,36,19355.0,31,19355.0,19355.0,19345.0,19350.0,44,-24,19345,53,19350,29
2017-02-21 10:58:00,10:58:17,10:58:17,17921,17956,19345.0,30,19350.0,49,19350.0,19350.0,19350.0,19350.0,45,45,19350,22,19355,32
2017-02-21 10:59:00,10:59:00,10:59:54,17975,18046,19350.0,21,19355.0,46,19355.0,19355.0,19345.0,19350.0,80,16,19350,7,19355,49
2017-02-21 11:00:00,11:00:21,11:00:59,18067,18407,19350.0,37,19355.0,30,19350.0,19375.0,19350.0,19370.0,621,453,19365,77,19370,9
2017-02-21 11:01:00,11:01:00,11:01:59,18412,18675,19365.0,79,19370.0,14,19370.0,19375.0,19360.0,19375.0,409,166,19375,77,19380,80
2017-02-21 11:02:00,11:02:04,11:02:56,18683,18769,19375.0,81,19380.0,96,19380.0,19380.0,19375.0,19380.0,161,67,19380,32,19385,84
2017-02-21 11:03:00,11:03:05,11:03:58,18784,18965,19380.0,48,19385.0,100,19385.0,19385.0,19380.0,19380.0,224,4,19380,12,19380,9
2017-02-21 11:04:00,11:04:06,11:04:56,18972,19089,19380.0,13,19385.0,87,19380.0,19380.0,19380.0,19380.0,99,21,19380,23,19385,85
2017-02-21 11:05:00,11:05:10,11:05:37,19106,19172,19380.0,6,19385.0,100,19380.0,19385.0,19380.0,19380.0,38,-16,19380,21,19385,93
2017-02-21 11:06:00,11:06:01,11:06:50,19189,19252,19380.0,27,19385.0,95,19385.0,19385.0,19380.0,19380.0,41,1,19375,76,19380,49
2017-02-21 11:07:00,11:07:05,11:07:58,19262,19395,19375.0,67,19380.0,53,19380.0,19390.0,19380.0,19385.0,223,97,19385,45,19390,68
2017-02-21 11:08:00,11:08:05,11:08:36,19401,19445,19385.0,48,19390.0,68,19390.0,19390.0,19385.0,19385.0,37,-29,19380,62,19385,26
2017-02-21 11:09:00,11:09:04,11:09:49,19474,19566,19380.0,63,19385.0,64,19385.0,19385.0,19375.0,19385.0,83,-75,19380,78,19385,47
2017-02-21 11:10:00,11:10:11,11:10:50,19574,19597,19380.0,79,19385.0,42,19380.0,19385.0,19380.0,19385.0,6,0,19380,72,19385,57
2017-02-21 11:11:00,11:11:19,11:11:51,19608,19629,19380.0,75,19385.0,61,19385.0,19385.0,19385.0,19385.0,5,5,19380,68,19385,64
2017-02-21 11:12:00,11:12:07,11:12:50,19636,19698,19380.0,69,19385.0,65,19385.0,19385.0,19380.0,19380.0,41,-31,19375,79,19380,39
2017-02-21 11:13:00,11:13:04,11:13:53,19709,19763,19375.0,82,19380.0,41,19380.0,19385.0,19380.0,19380.0,69,61,19380,19,19385,47
2017-02-21 11:14:00,11:14:16,11:14:42,19777,19823,19380.0,35,19385.0,58,19385.0,19385.0,19380.0,19385.0,36,30,19380,38,19385,69
2017-02-21 11:15:00,11:15:22,11:15:36,19843,19874,19380.0,42,19385.0,66,19385.0,19385.0,19380.0,19380.0,32,-30,19380,23,19385,70
2017-02-21 11:16:00,11:16:06,11:16:36,19895,19910,19380.0,51,19385.0,75,19385.0,19385.0,19385.0,19385.0,4,4,19380,50,19385,70
2017-02-21 11:17:00,11:17:05,11:17:53,19926,19958,19380.0,53,19385.0,71,19385.0,19385.0,19385.0,19385.0,8,8,19380,49,19385,77
2017-02-21 11:18:00,11:18:05,11:18:53,19964,20087,19380.0,51,19385.0,76,19385.0,19390.0,19385.0,19385.0,149,27,19380,79,19385,30
2017-02-21 11:19:00,11:19:07,11:19:59,20098,20158,19380.0,79,19385.0,29,19385.0,19390.0,19385.0,19385.0,33,-3,19385,43,19390,78
2017-02-21 11:20:00,11:20:15,11:20:28,20171,20190,19385.0,25,19390.0,88,19385.0,19385.0,19385.0,19385.0,15,-15,19385,21,19390,83
2017-02-21 11:21:00,11:21:14,11:21:51,20205,20265,19385.0,20,19390.0,91,19385.0,19385.0,19385.0,19385.0,47,-25,19380,63,19385,46
2017-02-21 11:22:00,11:22:06,11:22:27,20270,20291,19380.0,67,19385.0,46,19385.0,19385.0,19380.0,19380.0,13,-9,19380,37,19385,73
2017-02-21 11:23:00,11:23:25,11:23:52,20307,20364,19380.0,41,19385.0,80,19380.0,19380.0,19380.0,19380.0,55,-29,19375,72,19380,38
2017-02-21 11:24:00,11:24:04,11:24:21,20369,20379,19375.0,73,19380.0,40,19380.0,19380.0,19380.0,19380.0,3,3,19375,71,19380,37
2017-02-21 11:25:00,11:25:04,11:25:17,20392,20402,19375.0,59,19380.0,54,19380.0,19380.0,19380.0,19380.0,3,3,19375,56,19380,63
2017-02-21 11:26:00,11:26:07,11:26:52,20415,20443,19375.0,62,19380.0,47,19380.0,19380.0,19380.0,19380.0,6,6,19375,61,19380,42
2017-02-21 11:27:00,11:27:19,11:27:52,20458,20480,19375.0,64,19380.0,45,19380.0,19380.0,19380.0,19380.0,8,8,19375,72,19380,40
2017-02-21 11:28:00,11:28:31,11:28:52,20504,20524,19375.0,62,19380.0,41,19380.0,19380.0,19380.0,19380.0,6,6,19375,59,19380,39
2017-02-21 11:29:00,11:29:06,11:29:53,20536,20570,19375.0,62,19380.0,47,19380.0,19380.0,19375.0,19375.0,18,-8,19375,32,19380,93
2017-02-21 11:30:00,11:30:00,11:30:55,20577,20860,19375.0,56,19380.0,93,19380.0,19380.0,19375.0,19375.0,346,-3,19370,54,19375,31
2017-02-21 11:31:00,11:31:11,11:31:35,20877,20938,19370.0,55,19375.0,35,19375.0,19380.0,19375.0,19380.0,35,20,19375,50,19380,56
2017-02-21 11:32:00,11:32:03,11:32:59,20956,21101,19375.0,70,19380.0,49,19380.0,19380.0,19370.0,19370.0,147,-93,19365,44,19370,35
2017-02-21 11:33:00,11:33:01,11:33:22,21109,21162,19365.0,25,19370.0,56,19365.0,19365.0,19365.0,19365.0,43,-37,19365,52,19370,32
2017-02-21 11:34:00,11:34:24,11:34:33,21233,21352,19365.0,43,19370.0,50,19370.0,19370.0,19365.0,19365.0,173,-77,19365,27,19370,33
2017-02-21 11:35:00,11:35:00,11:35:00,0,0,0.0,0,0.0,0,19365.0,19365.0,19365.0,19365.0,0,0,0,0,0,0
2017-02-21 11:36:00,11:36:13,11:36:49,21389,21401,19365.0,37,19370.0,53,19365.0,19365.0,19365.0,19365.0,4,-4,19365,33,19370,56
2017-02-21 11:37:00,11:37:00,11:37:24,21403,21418,19365.0,33,19370.0,55,19365.0,19365.0,19365.0,19365.0,9,-9,19365,29,19370,52
2017-02-21 11:38:00,11:38:31,11:38:57,21431,21495,19365.0,32,19370.0,52,19365.0,19365.0,19360.0,19360.0,62,-12,19360,83,19365,47
2017-02-21 11:39:00,11:39:02,11:39:57,21498,21561,19360.0,83,19365.0,47,19360.0,19365.0,19360.0,19365.0,60,10,19365,42,19370,31
2017-02-21 11:40:00,11:40:04,11:40:52,21564,21768,19365.0,41,19370.0,60,19370.0,19370.0,19360.0,19370.0,358,-78,19365,30,19365,83
2017-02-21 11:41:00,11:41:04,11:41:57,21772,21887,19365.0,30,19370.0,47,19365.0,19370.0,19365.0,19370.0,134,70,19370,34,19375,58
2017-02-21 11:42:00,11:42:15,11:42:39,21889,21909,19370.0,34,19375.0,57,19370.0,19370.0,19370.0,19370.0,11,-9,19365,40,19370,112
2017-02-21 11:43:00,11:43:00,11:43:00,0,0,0.0,0,0.0,0,19370.0,19370.0,19370.0,19370.0,0,0,0,0,0,0
2017-02-21 11:44:00,11:44:58,11:44:58,21943,21943,19365.0,40,19370.0,48,19370.0,19370.0,19370.0,19370.0,5,5,19365,41,19370,41
2017-02-21 11:45:00,11:45:03,11:45:47,21948,22046,19365.0,41,19370.0,41,19370.0,19370.0,19365.0,19365.0,79,-13,19365,10,19370,50
2017-02-21 11:46:00,11:46:03,11:46:35,22057,22092,19365.0,5,19370.0,50,19365.0,19365.0,19365.0,19365.0,30,-30,19365,33,19370,47
2017-02-21 11:47:00,11:47:07,11:47:44,22112,22237,19365.0,44,19370.0,48,19370.0,19375.0,19370.0,19375.0,183,61,19370,31,19375,44
2017-02-21 11:48:00,11:48:43,11:48:43,22259,22259,19370.0,33,19375.0,44,19375.0,19375.0,19375.0,19375.0,1,1,19370,39,19375,43
2017-02-21 11:49:00,11:49:15,11:49:15,22261,22261,19370.0,39,19375.0,44,19375.0,19375.0,19375.0,19375.0,1,1,19370,32,19375,43
2017-02-21 11:50:00,11:50:59,11:50:59,22299,22299,19370.0,46,19375.0,43,19375.0,19375.0,19375.0,19375.0,1,1,19370,39,19375,42
2017-02-21 11:51:00,11:51:10,11:51:50,22303,22334,19370.0,39,19375.0,45,19370.0,19375.0,19370.0,19370.0,33,-31,19365,55,19370,40
2017-02-21 11:52:00,11:52:01,11:52:41,22345,22393,19365.0,56,19370.0,39,19365.0,19370.0,19365.0,19370.0,49,17,19365,58,19375,44
2017-02-21 11:53:00,11:53:29,11:53:49,22409,22428,19370.0,42,19375.0,46,19375.0,19375.0,19375.0,19375.0,14,14,19370,46,19375,44
2017-02-21 11:54:00,11:54:04,11:54:58,22437,22509,19370.0,51,19375.0,42,19370.0,19375.0,19370.0,19375.0,47,45,19370,89,19375,19
2017-02-21 11:55:00,11:55:05,11:55:55,22515,22571,19370.0,90,19375.0,15,19375.0,19375.0,19370.0,19370.0,45,43,19370,89,19375,23
2017-02-21 11:56:00,11:56:12,11:56:49,22583,22612,19370.0,82,19375.0,29,19375.0,19375.0,19375.0,19375.0,19,19,19375,21,19380,45
2017-02-21 11:57:00,11:57:01,11:57:01,22626,22627,19375.0,41,19380.0,47,19380.0,19380.0,19380.0,19380.0,2,2,19375,40,19380,46
2017-02-21 11:58:00,11:58:13,11:58:58,22637,22677,19375.0,36,19380.0,54,19375.0,19375.0,19375.0,19375.0,47,-17,19370,67,19375,35
2017-02-21 11:59:00,11:59:00,11:59:00,0,0,0.0,0,0.0,0,19375.0,19375.0,19375.0,19375.0,0,0,0,0,0,0
2017-02-21 12:00:00,12:00:00,12:00:40,22703,22778,19370.0,68,19375.0,28,19375.0,19375.0,19375.0,19375.0,69,-13,19375,20,19380,57
2017-02-21 12:01:00,12:01:05,12:01:37,22799,22817,19375.0,46,19380.0,49,19375.0,19375.0,19375.0,19375.0,6,-6,19375,68,19380,47
2017-02-21 12:02:00,12:02:20,12:02:34,22833,22850,19375.0,72,19380.0,53,19380.0,19380.0,19380.0,19380.0,7,7,19375,87,19380,44
2017-02-21 12:03:00,12:03:01,12:03:38,22862,22884,19375.0,84,19380.0,45,19380.0,19380.0,19380.0,19380.0,5,5,19375,82,19380,49
2017-02-21 12:04:00,12:04:01,12:04:53,22890,22911,19375.0,82,19380.0,50,19380.0,19380.0,19380.0,19380.0,7,7,19375,77,19380,47
2017-02-21 12:05:00,12:05:10,12:05:44,22914,22943,19375.0,77,19380.0,47,19380.0,19380.0,19375.0,19380.0,9,5,19375,62,19380,64
2017-02-21 12:06:00,12:06:50,12:06:53,22966,22968,19375.0,61,19380.0,57,19375.0,19380.0,19375.0,19380.0,6,4,19375,61,19380,51
2017-02-21 12:07:00,12:07:12,12:07:52,22981,23060,19375.0,61,19380.0,53,19380.0,19380.0,19375.0,19375.0,95,-85,19370,88,19375,19
2017-02-21 12:08:00,12:08:21,12:08:48,23074,23120,19370.0,80,19375.0,29,19375.0,19375.0,19375.0,19375.0,39,37,19375,28,19380,51
2017-02-21 12:09:00,12:09:10,12:09:17,23129,23157,19375.0,26,19380.0,51,19375.0,19375.0,19375.0,19375.0,22,-22,19375,10,19380,57
2017-02-21 12:10:00,12:10:12,12:10:57,23182,23209,19375.0,23,19380.0,63,19380.0,19380.0,19375.0,19375.0,6,4,19375,39,19380,55
2017-02-21 12:11:00,12:11:02,12:11:47,23215,23322,19375.0,49,19380.0,55,19380.0,19385.0,19380.0,19385.0,95,86,19380,51,19385,96
2017-02-21 12:12:00,12:12:30,12:12:50,23335,23348,19380.0,46,19385.0,111,19380.0,19385.0,19380.0,19380.0,8,-4,19380,38,19385,108
2017-02-21 12:13:00,12:13:40,12:13:41,23359,23362,19380.0,42,19385.0,102,19385.0,19385.0,19385.0,19385.0,2,2,19380,40,19385,100
2017-02-21 12:14:00,12:14:02,12:14:47,23370,23381,19380.0,44,19385.0,101,19385.0,19385.0,19385.0,19385.0,6,6,19380,41,19385,100
2017-02-21 12:15:00,12:15:00,12:15:00,23384,23384,19380.0,41,19385.0,100,19385.0,19385.0,19385.0,19385.0,1,1,19380,40,19385,99
2017-02-21 12:16:00,12:16:19,12:16:48,23399,23435,19380.0,71,19385.0,105,19385.0,19385.0,19380.0,19380.0,47,37,19380,74,19385,74
2017-02-21 12:17:00,12:17:00,12:17:00,0,0,0.0,0,0.0,0,19380.0,19380.0,19380.0,19380.0,0,0,0,0,0,0
2017-02-21 12:18:00,12:18:54,12:18:54,23493,23493,19380.0,115,19385.0,70,19385.0,19385.0,19385.0,19385.0,3,3,19380,112,19385,66
2017-02-21 12:19:00,12:19:05,12:19:46,23501,23528,19380.0,129,19385.0,66,19385.0,19385.0,19380.0,19385.0,20,18,19380,108,19385,68
2017-02-21 12:20:00,12:20:59,12:20:59,23554,23554,19380.0,121,19385.0,101,19385.0,19385.0,19385.0,19385.0,5,5,19380,141,19385,96
2017-02-21 12:21:00,12:21:05,12:21:57,23558,23693,19380.0,121,19385.0,104,19385.0,19385.0,19380.0,19380.0,225,-163,19380,28,19385,78
2017-02-21 12:22:00,12:22:03,12:22:50,23698,23759,19380.0,16,19385.0,78,19380.0,19380.0,19380.0,19380.0,55,-34,19375,54,19380,7
2017-02-21 12:23:00,12:23:11,12:23:49,23773,23833,19375.0,40,19380.0,71,19375.0,19375.0,19370.0,19370.0,68,-68,19370,48,19375,59
2017-02-21 12:24:00,12:24:00,12:24:00,0,0,0.0,0,0.0,0,19370.0,19370.0,19370.0,19370.0,0,0,0,0,0,0
2017-02-21 12:25:00,12:25:09,12:25:49,23872,23950,19370.0,62,19375.0,33,19375.0,19375.0,19370.0,19375.0,75,29,19370,55,19375,24
2017-02-21 12:26:00,12:26:00,12:26:23,23961,24024,19370.0,55,19375.0,24,19375.0,19375.0,19370.0,19370.0,90,-3,19370,22,19375,49
2017-02-21 12:27:00,12:27:00,12:27:00,0,0,0.0,0,0.0,0,19370.0,19370.0,19370.0,19370.0,0,0,0,0,0,0
2017-02-21 12:28:00,12:28:48,12:28:48,24075,24076,19370.0,48,19375.0,31,19375.0,19375.0,19375.0,19375.0,2,2,19370,47,19375,29
2017-02-21 12:29:00,12:29:15,12:29:56,24084,24138,19370.0,44,19375.0,34,19370.0,19370.0,19370.0,19370.0,75,-75,19365,112,19370,31
2017-02-21 12:30:00,12:30:07,12:30:07,24145,24145,19365.0,112,19370.0,36,19370.0,19370.0,19370.0,19370.0,2,2,19365,111,19370,34
2017-02-21 12:31:00,12:31:02,12:31:55,24173,24231,19365.0,116,19370.0,49,19370.0,19370.0,19370.0,19370.0,129,81,19370,98,19375,72
2017-02-21 12:32:00,12:32:14,12:32:58,24238,24365,19370.0,106,19375.0,60,19375.0,19375.0,19375.0,19375.0,230,32,19370,57,19375,23
2017-02-21 12:33:00,12:33:00,12:33:00,0,0,0.0,0,0.0,0,19375.0,19375.0,19375.0,19375.0,0,0,0,0,0,0
2017-02-21 12:34:00,12:34:16,12:34:16,24430,24430,19370.0,44,19375.0,55,19375.0,19375.0,19375.0,19375.0,2,2,19370,61,19375,53
2017-02-21 12:35:00,12:35:02,12:35:03,24446,24476,19370.0,44,19375.0,53,19375.0,19375.0,19375.0,19375.0,68,42,19370,62,19380,98
2017-02-21 12:36:00,12:36:06,12:36:52,24490,24597,19370.0,60,19375.0,18,19375.0,19380.0,19375.0,19375.0,132,-6,19370,70,19375,23
2017-02-21 12:37:00,12:37:22,12:37:22,24609,24609,19370.0,66,19375.0,28,19375.0,19375.0,19375.0,19375.0,1,1,19370,67,19375,27
2017-02-21 12:38:00,12:38:10,12:38:10,24623,24623,19370.0,66,19375.0,29,19370.0,19370.0,19370.0,19370.0,1,-1,19370,65,19375,33
2017-02-21 12:39:00,12:39:23,12:39:24,24656,24659,19370.0,86,19375.0,20,19375.0,19375.0,19375.0,19375.0,2,2,19370,86,19375,15
2017-02-21 12:40:00,12:40:38,12:40:38,24678,24679,19370.0,91,19375.0,51,19375.0,19375.0,19375.0,19375.0,5,5,19370,92,19375,43
2017-02-21 12:41:00,12:41:03,12:41:31,24686,24745,19370.0,92,19375.0,55,19370.0,19370.0,19370.0,19370.0,67,-67,19370,29,19375,75
2017-02-21 12:42:00,12:42:00,12:42:00,0,0,0.0,0,0.0,0,19370.0,19370.0,19370.0,19370.0,0,0,0,0,0,0
2017-02-21 12:43:00,12:43:06,12:43:06,24776,24778,19370.0,40,19375.0,74,19370.0,19370.0,19370.0,19370.0,5,-5,19370,37,19375,73
2017-02-21 12:44:00,12:44:10,12:44:42,24800,24836,19370.0,35,19375.0,75,19370.0,19370.0,19370.0,19370.0,36,-18,19365,66,19375,73
2017-02-21 12:45:00,12:45:22,12:45:47,24849,24863,19365.0,71,19370.0,35,19370.0,19370.0,19365.0,19365.0,6,0,19365,67,19370,33
2017-02-21 12:46:00,12:46:00,12:46:00,0,0,0.0,0,0.0,0,19365.0,19365.0,19365.0,19365.0,0,0,0,0,0,0
2017-02-21 12:47:00,12:47:34,12:47:57,24886,25011,19365.0,74,19370.0,35,19370.0,19370.0,19370.0,19370.0,179,-29,19365,95,19370,18
2017-02-21 12:48:00,12:48:24,12:48:24,25029,25032,19365.0,80,19370.0,23,19370.0,19370.0,19370.0,19370.0,11,11,19370,20,19375,79
2017-02-21 12:49:00,12:49:00,12:49:00,0,0,0.0,0,0.0,0,19370.0,19370.0,19370.0,19370.0,0,0,0,0,0,0
2017-02-21 12:50:00,12:50:05,12:50:35,25063,25069,19370.0,37,19375.0,71,19370.0,19370.0,19370.0,19370.0,2,-2,19370,34,19375,75
2017-02-21 12:51:00,12:51:07,12:51:08,25081,25116,19370.0,22,19375.0,75,19370.0,19370.0,19370.0,19370.0,67,15,19365,61,19370,31
2017-02-21 12:52:00,12:52:40,12:52:57,25158,25180,19365.0,76,19370.0,22,19370.0,19370.0,19370.0,19370.0,36,36,19370,36,19375,82
2017-02-21 12:53:00,12:53:04,12:53:52,25184,25211,19370.0,36,19375.0,77,19375.0,19375.0,19370.0,19375.0,19,-5,19370,43,19375,68
2017-02-21 12:54:00,12:54:20,12:54:20,25221,25228,19370.0,42,19375.0,70,19370.0,19370.0,19370.0,19370.0,25,-25,19365,81,19370,8
2017-02-21 12:55:00,12:55:00,12:55:53,25245,25303,19365.0,86,19370.0,43,19365.0,19365.0,19365.0,19365.0,71,-71,19360,69,19370,123
2017-02-21 12:56:00,12:56:49,12:56:55,25317,25351,19365.0,33,19370.0,122,19370.0,19370.0,19370.0,19370.0,63,63,19370,28,19375,72
2017-02-21 12:57:00,12:57:02,12:57:31,25358,25397,19370.0,28,19375.0,72,19370.0,19370.0,19370.0,19370.0,49,-49,19365,69,19370,23
2017-02-21 12:58:00,12:58:00,12:58:00,0,0,0.0,0,0.0,0,19370.0,19370.0,19370.0,19370.0,0,0,0,0,0,0
2017-02-21 12:59:00,12:59:17,12:59:17,25439,25439,19365.0,48,19370.0,77,19370.0,19370.0,19370.0,19370.0,1,1,19365,49,19370,76
2017-02-21 13:00:00,13:00:19,13:00:55,25474,25593,19365.0,77,19370.0,43,19370.0,19375.0,19365.0,19370.0,182,60,19370,23,19375,71
2017-02-21 13:01:00,13:01:07,13:01:58,25604,25660,19370.0,34,19375.0,74,19370.0,19370.0,19365.0,19370.0,26,-14,19365,98,19375,75
2017-02-21 13:02:00,13:02:15,13:02:19,25673,25723,19370.0,29,19375.0,77,19370.0,19370.0,19370.0,19370.0,76,-64,19370,16,19375,78
2017-02-21 13:03:00,13:03:24,13:03:57,25762,25798,19370.0,10,19375.0,78,19370.0,19370.0,19370.0,19370.0,43,7,19365,96,19370,9
2017-02-21 13:04:00,13:04:01,13:04:29,25799,25832,19365.0,103,19375.0,78,19370.0,19370.0,19365.0,19365.0,21,-9,19365,23,19370,44
2017-02-21 13:05:00,13:05:03,13:05:49,25844,25971,19365.0,79,19370.0,44,19370.0,19375.0,19370.0,19370.0,141,79,19365,88,19370,31
2017-02-21 13:06:00,13:06:01,13:06:57,25981,26023,19365.0,96,19370.0,21,19370.0,19375.0,19370.0,19375.0,21,19,19370,23,19375,61
2017-02-21 13:07:00,13:07:19,13:07:53,26049,26065,19370.0,50,19375.0,49,19375.0,19375.0,19370.0,19375.0,12,10,19370,50,19375,48
2017-02-21 13:08:00,13:08:02,13:08:42,26068,26169,19370.0,50,19375.0,48,19375.0,19375.0,19375.0,19375.0,110,102,19370,46,19375,57
2017-02-21 13:09:00,13:09:01,13:09:47,26177,26288,19370.0,43,19375.0,59,19375.0,19375.0,19370.0,19370.0,92,-56,19365,91,19370,12
2017-02-21 13:10:00,13:10:04,13:10:58,26302,26363,19365.0,91,19370.0,17,19370.0,19375.0,19370.0,19370.0,53,41,19365,98,19370,12
2017-02-21 13:11:00,13:11:19,13:11:39,26384,26407,19365.0,92,19370.0,23,19370.0,19370.0,19370.0,19370.0,10,10,19365,83,19370,4
2017-02-21 13:12:00,13:12:00,13:12:58,26417,26513,19365.0,56,19370.0,53,19370.0,19370.0,19370.0,19370.0,21,21,19365,83,19370,17
2017-02-21 13:13:00,13:13:14,13:13:57,26524,26618,19365.0,51,19370.0,58,19365.0,19365.0,19360.0,19365.0,93,-25,19360,58,19365,35
2017-02-21 13:14:00,13:14:09,13:14:54,26626,26678,19360.0,58,19365.0,46,19365.0,19370.0,19365.0,19370.0,65,65,19365,42,19370,60
2017-02-21 13:15:00,13:15:23,13:15:57,26692,26710,19365.0,44,19370.0,69,19370.0,19370.0,19365.0,19365.0,13,11,19365,42,19370,47
2017-02-21 13:16:00,13:16:21,13:16:51,26715,26741,19365.0,43,19370.0,53,19370.0,19370.0,19365.0,19370.0,21,11,19365,45,19370,31
2017-02-21 13:17:00,13:17:06,13:17:54,26746,26805,19365.0,44,19370.0,33,19370.0,19375.0,19365.0,19375.0,60,56,19370,66,19375,36
2017-02-21 13:18:00,13:18:17,13:18:59,26819,26896,19370.0,62,19375.0,47,19370.0,19370.0,19370.0,19370.0,81,37,19365,71,19370,27
2017-02-21 13:19:00,13:19:11,13:19:58,26902,26936,19365.0,71,19370.0,28,19365.0,19370.0,19365.0,19370.0,26,2,19365,48,19370,25
2017-02-21 13:20:00,13:20:04,13:20:40,26944,27066,19365.0,65,19370.0,79,19365.0,19370.0,19365.0,19370.0,143,-101,19365,66,19370,39
2017-02-21 13:21:00,13:21:00,13:21:52,27080,27123,19365.0,64,19370.0,40,19365.0,19370.0,19365.0,19370.0,32,0,19365,66,19370,36
2017-02-21 13:22:00,13:22:29,13:22:56,27143,27194,19365.0,74,19370.0,20,19370.0,19375.0,19370.0,19370.0,50,44,19370,38,19375,57
2017-02-21 13:23:00,13:23:09,13:23:53,27200,27243,19370.0,38,19375.0,58,19370.0,19375.0,19370.0,19370.0,32,0,19370,30,19375,68
2017-02-21 13:24:00,13:24:01,13:24:46,27247,27318,19370.0,30,19375.0,62,19370.0,19375.0,19365.0,19365.0,63,-40,19365,62,19370,37
2017-02-21 13:25:00,13:25:04,13:25:58,27331,27442,19365.0,63,19370.0,35,19370.0,19375.0,19370.0,19375.0,107,35,19370,31,19375,59
2017-02-21 13:26:00,13:26:05,13:26:59,27446,27516,19370.0,38,19375.0,66,19370.0,19375.0,19370.0,19370.0,71,13,19370,1,19370,14
2017-02-21 13:27:00,13:27:07,13:27:59,27519,27564,19370.0,2,19375.0,88,19370.0,19375.0,19370.0,19375.0,34,26,19370,40,19375,69
2017-02-21 13:28:00,13:28:03,13:28:59,27570,27669,19370.0,36,19375.0,70,19370.0,19375.0,19370.0,19370.0,80,-54,19365,90,19370,14
2017-02-21 13:29:00,13:29:13,13:29:56,27676,27707,19365.0,90,19370.0,11,19370.0,19375.0,19370.0,19370.0,21,19,19370,26,19375,70
2017-02-21 13:30:00,13:30:02,13:30:55,27714,27763,19370.0,30,19375.0,72,19375.0,19375.0,19370.0,19370.0,26,20,19370,27,19375,78
2017-02-21 13:31:00,13:31:00,13:31:44,27765,27851,19370.0,27,19375.0,82,19370.0,19375.0,19365.0,19370.0,67,-13,19370,38,19375,117
2017-02-21 13:32:00,13:32:00,13:32:57,27866,27984,19370.0,28,19375.0,119,19370.0,19370.0,19365.0,19370.0,133,35,19365,72,19370,36
2017-02-21 13:33:00,13:33:07,13:33:57,27987,28074,19365.0,72,19370.0,36,19370.0,19375.0,19370.0,19370.0,92,0,19365,73,19370,19
2017-02-21 13:34:00,13:34:22,13:34:57,28088,28112,19365.0,74,19370.0,41,19370.0,19370.0,19365.0,19370.0,20,16,19365,73,19370,23
2017-02-21 13:35:00,13:35:00,13:35:33,28114,28148,19365.0,74,19370.0,23,19365.0,19375.0,19365.0,19375.0,36,30,19370,32,19375,73
2017-02-21 13:36:00,13:36:09,13:36:52,28168,28239,19370.0,46,19375.0,63,19375.0,19380.0,19375.0,19380.0,63,61,19375,52,19380,107
2017-02-21 13:37:00,13:37:03,13:37:45,28248,28270,19375.0,53,19380.0,105,19375.0,19380.0,19375.0,19380.0,26,12,19375,47,19380,87
2017-02-21 13:38:00,13:38:00,13:38:54,28274,28341,19375.0,51,19380.0,86,19375.0,19380.0,19375.0,19380.0,54,-18,19375,49,19380,70
2017-02-21 13:39:00,13:39:18,13:39:43,28355,28382,19375.0,44,19380.0,76,19375.0,19380.0,19375.0,19375.0,13,5,19375,28,19380,82
2017-02-21 13:40:00,13:40:00,13:40:53,28395,28484,19375.0,31,19380.0,75,19375.0,19375.0,19370.0,19375.0,88,-34,19370,75,19375,39
2017-02-21 13:41:00,13:41:01,13:41:58,28488,28544,19370.0,77,19375.0,46,19370.0,19375.0,19370.0,19375.0,30,24,19370,55,19375,63
2017-02-21 13:42:00,13:42:11,13:42:48,28547,28624,19370.0,55,19375.0,63,19370.0,19380.0,19370.0,19375.0,71,21,19375,16,19380,80
2017-02-21 13:43:00,13:43:03,13:43:47,28634,28728,19375.0,41,19380.0,80,19380.0,19380.0,19370.0,19370.0,122,12,19370,23,19375,87
2017-02-21 13:44:00,13:44:03,13:44:58,28746,28835,19370.0,41,19375.0,80,19375.0,19375.0,19370.0,19375.0,51,41,19370,85,19380,92
2017-02-21 13:45:00,13:45:17,13:45:42,28846,28923,19370.0,47,19375.0,58,19375.0,19380.0,19370.0,19380.0,56,44,19375,44,19380,85
2017-02-21 13:46:00,13:46:04,13:46:57,28937,28981,19375.0,46,19380.0,84,19380.0,19380.0,19375.0,19380.0,45,21,19375,40,19380,83
2017-02-21 13:47:00,13:47:08,13:47:58,28988,29107,19375.0,41,19380.0,84,19375.0,19385.0,19375.0,19385.0,185,165,19380,69,19385,127
2017-02-21 13:48:00,13:48:04,13:48:46,29117,29189,19380.0,54,19385.0,137,19380.0,19380.0,19375.0,19380.0,77,-43,19375,77,19380,57
2017-02-21 13:49:00,13:49:03,13:49:59,29198,29233,19375.0,78,19380.0,60,19375.0,19380.0,19375.0,19380.0,37,31,19375,69,19380,49
2017-02-21 13:50:00,13:50:02,13:50:51,29241,29278,19375.0,67,19380.0,81,19375.0,19380.0,19375.0,19380.0,29,19,19375,67,19380,72
2017-02-21 13:51:00,13:51:01,13:51:52,29283,29339,19375.0,64,19380.0,84,19375.0,19380.0,19375.0,19380.0,51,11,19375,47,19380,120
2017-02-21 13:52:00,13:52:10,13:52:58,29348,29418,19375.0,48,19380.0,132,19380.0,19380.0,19375.0,19375.0,71,-21,19375,52,19380,127
2017-02-21 13:53:00,13:53:01,13:53:54,29423,29527,19375.0,41,19380.0,127,19375.0,19380.0,19375.0,19375.0,135,-54,19370,181,19375,3
2017-02-21 13:54:00,13:54:13,13:54:52,29545,29602,19370.0,186,19375.0,33,19375.0,19375.0,19370.0,19375.0,59,19,19370,171,19375,31
2017-02-21 13:55:00,13:55:03,13:55:52,29613,29786,19370.0,175,19375.0,35,19375.0,19375.0,19365.0,19370.0,313,-193,19365,84,19370,48
2017-02-21 13:56:00,13:56:06,13:56:47,29798,29847,19365.0,83,19370.0,38,19370.0,19370.0,19365.0,19370.0,47,41,19365,89,19370,55
2017-02-21 13:57:00,13:57:01,13:57:50,29853,30001,19365.0,90,19370.0,56,19370.0,19370.0,19365.0,19370.0,182,30,19365,67,19370,102
2017-02-21 13:58:00,13:58:05,13:58:59,30004,30208,19365.0,67,19370.0,102,19370.0,19375.0,19365.0,19370.0,249,92,19365,111,19370,26
2017-02-21 13:59:00,13:59:01,13:59:59,30216,30581,19365.0,100,19370.0,49,19365.0,19375.0,19365.0,19370.0,507,-141,19365,63,19370,86
2017-02-21 14:00:00,14:00:00,14:00:59,30582,30973,19365.0,8,19370.0,121,19365.0,19380.0,19365.0,19380.0,680,253,19375,39,19380,236
2017-02-21 14:01:00,14:01:00,14:01:57,30977,31120,19375.0,48,19380.0,236,19375.0,19380.0,19375.0,19380.0,155,63,19375,79,19380,201
2017-02-21 14:02:00,14:02:00,14:02:58,31122,31299,19375.0,85,19380.0,201,19375.0,19380.0,19370.0,19370.0,252,-138,19370,118,19375,151
2017-02-21 14:03:00,14:03:00,14:03:59,31302,31465,19370.0,119,19375.0,150,19370.0,19375.0,19370.0,19375.0,218,132,19370,138,19375,9
2017-02-21 14:04:00,14:04:00,14:04:58,31468,31596,19370.0,138,19375.0,9,19375.0,19380.0,19370.0,19375.0,176,-74,19375,51,19380,208
2017-02-21 14:05:00,14:05:00,14:05:50,31600,31710,19375.0,49,19380.0,208,19375.0,19375.0,19370.0,19375.0,123,-63,19370,123,19375,190
2017-02-21 14:06:00,14:06:00,14:06:50,31721,31916,19370.0,131,19375.0,185,19370.0,19375.0,19365.0,19370.0,419,-219,19365,119,19370,22
2017-02-21 14:07:00,14:07:00,14:07:55,31932,32041,19365.0,166,19370.0,70,19370.0,19370.0,19365.0,19370.0,98,-14,19365,115,19370,81
2017-02-21 14:08:00,14:08:03,14:08:59,32051,32159,19365.0,116,19370.0,80,19370.0,19370.0,19365.0,19370.0,163,35,19365,95,19370,50
2017-02-21 14:09:00,14:09:00,14:09:55,32160,32350,19365.0,88,19370.0,54,19370.0,19380.0,19370.0,19370.0,279,93,19365,58,19370,11
