,ST,ET,sidx,eidx,bB,bBS,bA,bAS,O,H,L,C,V,OF,eB,eBS,eA,eAS
2016-12-26 08:00:00,08:00:00,08:00:57,1059,1355,19380.0,19,19385.0,14,19385.0,19385.0,19365.0,19375.0,324,-12,19370,30,19375,18
2016-12-26 08:01:00,08:01:00,08:01:46,1364,1428,19370.0,30,19375.0,25,19370.0,19375.0,19370.0,19370.0,65,13,19370,15,19375,31
2016-12-26 08:02:00,08:02:01,08:02:54,1440,1530,19370.0,27,19375.0,35,19370.0,19380.0,19365.0,19380.0,84,24,19380,24,19385,54
2016-12-26 08:03:00,08:03:04,08:03:42,1543,1644,19380.0,20,19385.0,61,19380.0,19380.0,19375.0,19375.0,120,-84,19370,51,19375,3
2016-12-26 08:04:00,08:04:05,08:04:52,1658,1732,19370.0,30,19375.0,16,19375.0,19380.0,19375.0,19380.0,55,15,19375,15,19380,34
2016-12-26 08:05:00,08:05:07,08:05:58,1743,1773,19375.0,22,19380.0,33,19375.0,19375.0,19375.0,19375.0,32,-10,19370,28,19380,41
2016-12-26 08:06:00,08:06:00,08:06:57,1776,1835,19370.0,28,19380.0,41,19375.0,19375.0,19370.0,19370.0,33,2,19370,35,19375,22
2016-12-26 08:07:00,08:07:26,08:07:56,1843,1879,19370.0,36,19375.0,21,19375.0,19375.0,19370.0,19370.0,28,-18,19365,31,19370,13
2016-12-26 08:08:00,08:08:02,08:08:41,1887,1922,19365.0,31,19370.0,14,19365.0,19365.0,19365.0,19365.0,9,-9,19365,28,19370,44
2016-12-26 08:09:00,08:09:00,08:09:50,1931,2050,19365.0,25,19370.0,51,19365.0,19365.0,19365.0,19365.0,76,-32,19360,41,19365,10
2016-12-26 08:10:00,08:10:00,08:10:41,2064,2141,19360.0,34,19365.0,29,19360.0,19365.0,19360.0,19365.0,42,10,19365,7,19370,46
2016-12-26 08:11:00,08:11:21,08:11:44,2180,2244,19360.0,34,19365.0,38,19365.0,19365.0,19360.0,19365.0,52,-8,19360,20,19365,36
2016-12-26 08:12:00,08:12:07,08:12:59,2263,2305,19360.0,37,19365.0,36,19365.0,19365.0,19360.0,19360.0,21,-1,19360,27,19365,27
2016-12-26 08:13:00,08:13:01,08:13:56,2311,2424,19360.0,25,19365.0,32,19360.0,19370.0,19360.0,19365.0,88,20,19365,11,19370,34
2016-12-26 08:14:00,08:14:06,08:14:36,2432,2534,19365.0,25,19370.0,29,19370.0,19375.0,19370.0,19375.0,127,63,19375,11,19380,46
2016-12-26 08:15:00,08:15:00,08:15:48,2563,2595,19375.0,91,19380.0,19,19375.0,19375.0,19375.0,19375.0,16,-16,19375,75,19380,17
2016-12-26 08:16:00,08:16:24,08:16:49,2616,2695,19375.0,91,19380.0,25,19375.0,19375.0,19370.0,19370.0,68,-16,19370,37,19375,20
2016-12-26 08:17:00,08:17:00,08:17:50,2706,2773,19370.0,38,19375.0,16,19375.0,19375.0,19370.0,19370.0,66,8,19370,33,19375,23
2016-12-26 08:18:00,08:18:00,08:18:00,0,0,0.0,0,0.0,0,19370.0,19370.0,19370.0,19370.0,0,0,0,0,0,0
2016-12-26 08:19:00,08:19:24,08:19:58,2815,2872,19370.0,44,19375.0,28,19375.0,19375.0,19375.0,19375.0,36,2,19375,6,19380,45
2016-12-26 08:20:00,08:20:24,08:20:54,2912,2989,19375.0,12,19380.0,45,19375.0,19375.0,19365.0,19365.0,71,-45,19365,9,19370,42
2016-12-26 08:21:00,08:21:04,08:21:59,3005,3168,19365.0,16,19370.0,87,19365.0,19370.0,19365.0,19365.0,168,-64,19365,21,19370,43
2016-12-26 08:22:00,08:22:11,08:22:56,3185,3228,19365.0,38,19370.0,30,19365.0,19370.0,19365.0,19370.0,20,2,19365,39,19370,12
2016-12-26 08:23:00,08:23:25,08:23:48,3243,3297,19365.0,32,19370.0,25,19365.0,19365.0,19365.0,19365.0,55,-39,19365,16,19370,26
2016-12-26 08:24:00,08:24:08,08:24:49,3307,3380,19365.0,31,19370.0,21,19365.0,19370.0,19365.0,19370.0,49,-6,19370,3,19375,46
2016-12-26 08:25:00,08:25:36,08:25:59,3400,3434,19370.0,37,19375.0,43,19370.0,19375.0,19370.0,19375.0,29,-23,19370,37,19380,51
2016-12-26 08:26:00,08:26:29,08:26:52,3461,3506,19370.0,25,19375.0,30,19370.0,19370.0,19370.0,19370.0,31,-23,19365,24,19370,22
2016-12-26 08:27:00,08:27:04,08:27:57,3513,3563,19365.0,33,19370.0,16,19365.0,19370.0,19365.0,19365.0,25,-23,19365,9,19370,41
2016-12-26 08:28:00,08:28:03,08:28:57,3569,3638,19365.0,16,19370.0,41,19365.0,19365.0,19360.0,19365.0,45,-5,19360,33,19365,20
2016-12-26 08:29:00,08:29:12,08:29:24,3646,3657,19360.0,35,19365.0,24,19365.0,19365.0,19365.0,19365.0,10,10,19365,17,19370,30
2016-12-26 08:30:00,08:30:30,08:30:33,3682,3691,19365.0,44,19370.0,26,19370.0,19370.0,19370.0,19370.0,7,7,19365,39,19370,22
2016-12-26 08:31:00,08:31:19,08:31:31,3700,3717,19365.0,43,19370.0,25,19365.0,19370.0,19365.0,19370.0,16,-12,19365,36,19370,21
2016-12-26 08:32:00,08:32:04,08:32:55,3725,3755,19365.0,32,19370.0,23,19365.0,19365.0,19360.0,19360.0,31,-31,19360,37,19365,27
2016-12-26 08:33:00,08:33:09,08:33:44,3765,3849,19360.0,36,19365.0,26,19360.0,19365.0,19360.0,19365.0,113,-19,19365,13,19370,43
2016-12-26 08:34:00,08:34:00,08:34:00,0,0,0.0,0,0.0,0,19365.0,19365.0,19365.0,19365.0,0,0,0,0,0,0
2016-12-26 08:35:00,08:35:50,08:35:50,3918,3918,19365.0,36,19370.0,33,19365.0,19365.0,19365.0,19365.0,3,-3,19365,33,19370,34
2016-12-26 08:36:00,08:36:35,08:36:59,3934,3979,19365.0,38,19370.0,31,19370.0,19375.0,19370.0,19375.0,32,28,19370,52,19375,8
2016-12-26 08:37:00,08:37:00,08:37:00,0,0,0.0,0,0.0,0,19375.0,19375.0,19375.0,19375.0,0,0,0,0,0,0
2016-12-26 08:38:00,08:38:10,08:38:59,4008,4067,19370.0,46,19375.0,31,19375.0,19375.0,19375.0,19375.0,54,32,19370,51,19375,6
2016-12-26 08:39:00,08:39:00,08:39:55,4071,4187,19370.0,50,19375.0,6,19375.0,19375.0,19365.0,19365.0,135,-111,19360,31,19365,22
2016-12-26 08:40:00,08:40:01,08:40:40,4196,4310,19360.0,42,19365.0,22,19365.0,19370.0,19355.0,19355.0,157,-127,19355,15,19360,42
2016-12-26 08:41:00,08:41:31,08:41:57,4336,4437,19355.0,16,19360.0,69,19355.0,19365.0,19355.0,19365.0,162,134,19360,36,19365,33
2016-12-26 08:42:00,08:42:32,08:42:32,4466,4481,19360.0,37,19365.0,47,19360.0,19360.0,19360.0,19360.0,23,-13,19355,43,19360,5
2016-12-26 08:43:00,08:43:06,08:43:09,4506,4566,19355.0,40,19360.0,21,19355.0,19365.0,19355.0,19360.0,79,13,19360,49,19365,33
2016-12-26 08:44:00,08:44:37,08:44:51,4585,4676,19360.0,53,19365.0,34,19360.0,19365.0,19355.0,19365.0,154,-50,19355,31,19360,8
2016-12-26 08:45:00,08:45:04,08:45:55,4684,4781,19355.0,43,19360.0,17,19360.0,19360.0,19355.0,19355.0,87,13,19355,15,19360,42
2016-12-26 08:46:00,08:46:16,08:46:58,4795,4839,19355.0,42,19360.0,23,19355.0,19360.0,19355.0,19360.0,42,20,19360,5,19365,45
2016-12-26 08:47:00,08:47:00,08:47:46,4842,4874,19360.0,5,19365.0,45,19360.0,19360.0,19360.0,19360.0,21,11,19355,7,19360,17
2016-12-26 08:48:00,08:48:13,08:48:42,4880,4917,19355.0,42,19360.0,23,19355.0,19355.0,19355.0,19355.0,33,-33,19355,27,19360,40
2016-12-26 08:49:00,08:49:00,08:49:20,4924,4985,19355.0,38,19360.0,37,19355.0,19360.0,19355.0,19355.0,57,-3,19355,34,19360,22
2016-12-26 08:50:00,08:50:03,08:50:37,5001,5093,19355.0,37,19360.0,30,19360.0,19365.0,19355.0,19365.0,74,22,19360,49,19370,39
2016-12-26 08:51:00,08:51:04,08:51:56,5116,5214,19365.0,31,19370.0,37,19370.0,19370.0,19360.0,19360.0,100,-92,19360,19,19365,58
2016-12-26 08:52:00,08:52:14,08:52:51,5231,5308,19360.0,22,19365.0,58,19360.0,19360.0,19355.0,19360.0,60,-44,19355,36,19360,2
2016-12-26 08:53:00,08:53:24,08:53:59,5323,5345,19360.0,21,19365.0,36,19360.0,19360.0,19360.0,19360.0,14,-14,19360,14,19365,38
2016-12-26 08:54:00,08:54:00,08:54:45,5348,5429,19360.0,14,19365.0,38,19360.0,19360.0,19360.0,19360.0,61,5,19355,36,19360,13
2016-12-26 08:55:00,08:55:06,08:55:54,5443,5468,19355.0,32,19360.0,26,19355.0,19360.0,19355.0,19360.0,14,-12,19355,29,19360,43
2016-12-26 08:56:00,08:56:19,08:56:19,5476,5477,19355.0,29,19360.0,45,19355.0,19355.0,19355.0,19355.0,3,-3,19355,24,19360,42
2016-12-26 08:57:00,08:57:12,08:57:47,5492,5520,19355.0,32,19360.0,49,19360.0,19360.0,19350.0,19350.0,19,-13,19350,30,19355,27
2016-12-26 08:58:00,08:58:51,08:58:51,5551,5555,19350.0,36,19355.0,49,19350.0,19350.0,19350.0,19350.0,11,-11,19350,27,19355,58
2016-12-26 08:59:00,08:59:15,08:59:55,5567,5619,19350.0,27,19355.0,60,19350.0,19360.0,19350.0,19360.0,60,4,19355,25,19360,54
2016-12-26 09:00:00,09:00:00,09:00:55,5623,5716,19355.0,25,19360.0,56,19355.0,19365.0,19355.0,19365.0,102,32,19360,1,19365,40
2016-12-26 09:01:00,09:01:24,09:01:26,5742,5760,19360.0,28,19365.0,33,19360.0,19360.0,19360.0,19360.0,22,-22,19360,31,19365,37
2016-12-26 09:02:00,09:02:17,09:02:17,5781,5789,19360.0,20,19365.0,57,19360.0,19360.0,19360.0,19360.0,11,-11,19360,14,19365,47
2016-12-26 09:03:00,09:03:38,09:03:39,5807,5812,19360.0,18,19365.0,64,19365.0,19365.0,19365.0,19365.0,4,4,19360,12,19365,62
2016-12-26 09:04:00,09:04:20,09:04:20,5824,5830,19360.0,13,19365.0,70,19360.0,19360.0,19360.0,19360.0,8,-8,19360,10,19365,63
2016-12-26 09:05:00,09:05:00,09:05:00,0,0,0.0,0,0.0,0,19360.0,19360.0,19360.0,19360.0,0,0,0,0,0,0
2016-12-26 09:06:00,09:06:00,09:06:00,0,0,0.0,0,0.0,0,19360.0,19360.0,19360.0,19360.0,0,0,0,0,0,0
2016-12-26 09:07:00,09:07:50,09:07:59,5912,5955,19360.0,34,19365.0,79,19365.0,19365.0,19365.0,19365.0,90,68,19365,42,19370,49
2016-12-26 09:08:00,09:08:05,09:08:30,5962,6094,19365.0,55,19370.0,39,19370.0,19375.0,19370.0,19370.0,159,42,19370,14,19375,52
2016-12-26 09:09:00,09:09:00,09:09:00,0,0,0.0,0,0.0,0,19370.0,19370.0,19370.0,19370.0,0,0,0,0,0,0
2016-12-26 09:10:00,09:10:08,09:10:50,6136,6206,19370.0,26,19375.0,60,19370.0,19370.0,19365.0,19365.0,85,-71,19360,44,19365,7
2016-12-26 09:11:00,09:11:57,09:11:57,6243,6300,19365.0,18,19370.0,47,19370.0,19375.0,19370.0,19375.0,121,121,19370,35,19375,5
2016-12-26 09:12:00,09:12:07,09:12:52,6315,6370,19370.0,36,19375.0,19,19375.0,19375.0,19375.0,19375.0,37,0,19370,53,19375,9
2016-12-26 09:13:00,09:13:06,09:13:06,6380,6380,19370.0,54,19375.0,19,19375.0,19375.0,19375.0,19375.0,1,1,19370,55,19375,10
2016-12-26 09:14:00,09:14:08,09:14:45,6412,6470,19370.0,53,19375.0,23,19370.0,19370.0,19370.0,19370.0,55,-55,19370,11,19375,40
2016-12-26 09:15:00,09:15:05,09:15:05,6494,6504,19370.0,9,19375.0,59,19370.0,19370.0,19365.0,19370.0,14,-14,19365,48,19375,56
2016-12-26 09:16:00,09:16:32,09:16:45,6544,6575,19370.0,17,19375.0,60,19370.0,19370.0,19370.0,19370.0,17,-13,19370,11,19375,51
2016-12-26 09:17:00,09:17:00,09:17:00,0,0,0.0,0,0.0,0,19370.0,19370.0,19370.0,19370.0,0,0,0,0,0,0
2016-12-26 09:18:00,09:18:35,09:18:41,6589,6598,19370.0,27,19375.0,53,19375.0,19375.0,19370.0,19370.0,5,3,19370,29,19375,51
2016-12-26 09:19:00,09:19:45,09:19:50,6624,6629,19370.0,32,19375.0,56,19370.0,19375.0,19370.0,19375.0,2,0,19370,32,19375,52
2016-12-26 09:20:00,09:20:00,09:20:00,0,0,0.0,0,0.0,0,19375.0,19375.0,19375.0,19375.0,0,0,0,0,0,0
2016-12-26 09:21:00,09:21:59,09:21:59,6655,6655,19370.0,39,19375.0,64,19375.0,19375.0,19375.0,19375.0,1,1,19370,38,19375,65
2016-12-26 09:22:00,09:22:22,09:22:52,6658,6666,19370.0,38,19375.0,65,19375.0,19375.0,19375.0,19375.0,3,3,19370,38,19375,58
2016-12-26 09:23:00,09:23:00,09:23:00,0,0,0.0,0,0.0,0,19375.0,19375.0,19375.0,19375.0,0,0,0,0,0,0
2016-12-26 09:24:00,09:24:57,09:24:57,6701,6702,19370.0,36,19375.0,63,19375.0,19375.0,19375.0,19375.0,2,2,19370,35,19375,61
2016-12-26 09:25:00,09:25:00,09:25:00,0,0,0.0,0,0.0,0,19375.0,19375.0,19375.0,19375.0,0,0,0,0,0,0
2016-12-26 09:26:00,09:26:52,09:26:52,6735,6736,19370.0,41,19375.0,47,19375.0,19375.0,19375.0,19375.0,2,2,19370,40,19375,45
2016-12-26 09:27:00,09:27:27,09:27:28,6748,6757,19370.0,36,19375.0,47,19375.0,19375.0,19375.0,19375.0,18,18,19370,36,19375,44
2016-12-26 09:28:00,09:28:45,09:28:45,6778,6778,19370.0,34,19375.0,73,19375.0,19375.0,19375.0,19375.0,1,1,19370,32,19375,72
2016-12-26 09:29:00,09:29:40,09:29:50,6790,6809,19370.0,35,19375.0,74,19375.0,19375.0,19370.0,19375.0,16,14,19370,36,19375,61
2016-12-26 09:30:00,09:30:04,09:30:04,6816,6837,19370.0,36,19375.0,57,19370.0,19370.0,19370.0,19370.0,30,-30,19370,13,19375,47
2016-12-26 09:31:00,09:31:00,09:31:00,0,0,0.0,0,0.0,0,19370.0,19370.0,19370.0,19370.0,0,0,0,0,0,0
2016-12-26 09:32:00,09:32:58,09:32:58,6928,6928,19370.0,13,19375.0,90,19370.0,19370.0,19370.0,19370.0,1,-1,19370,11,19375,93
2016-12-26 09:33:00,09:33:06,09:33:40,6933,6981,19370.0,7,19375.0,90,19370.0,19370.0,19365.0,19370.0,38,-30,19365,61,19370,25
2016-12-26 09:34:00,09:34:52,09:34:52,7023,7024,19365.0,61,19370.0,44,19365.0,19365.0,19365.0,19365.0,2,-2,19365,59,19370,42
2016-12-26 09:35:00,09:35:09,09:35:12,7034,7108,19365.0,63,19370.0,42,19370.0,19375.0,19370.0,19375.0,134,130,19370,35,19375,19
2016-12-26 09:36:00,09:36:01,09:36:28,7130,7188,19370.0,45,19375.0,53,19375.0,19375.0,19370.0,19370.0,91,43,19370,39,19375,45
2016-12-26 09:37:00,09:37:20,09:37:53,7216,7259,19370.0,47,19375.0,31,19375.0,19375.0,19375.0,19375.0,40,20,19370,43,19375,13
2016-12-26 09:38:00,09:38:00,09:38:00,0,0,0.0,0,0.0,0,19375.0,19375.0,19375.0,19375.0,0,0,0,0,0,0
2016-12-26 09:39:00,09:39:36,09:39:47,7286,7302,19370.0,39,19375.0,40,19375.0,19375.0,19375.0,19375.0,17,17,19370,44,19375,14
2016-12-26 09:40:00,09:40:21,09:40:21,7309,7309,19370.0,45,19375.0,15,19370.0,19370.0,19370.0,19370.0,1,-1,19370,44,19375,19
2016-12-26 09:41:00,09:41:00,09:41:03,7328,7343,19370.0,44,19375.0,19,19375.0,19380.0,19375.0,19375.0,16,2,19370,42,19375,16
2016-12-26 09:42:00,09:42:12,09:42:12,7356,7357,19370.0,47,19375.0,19,19375.0,19375.0,19375.0,19375.0,2,2,19370,49,19375,16
2016-12-26 09:43:00,09:43:00,09:43:00,0,0,0.0,0,0.0,0,19375.0,19375.0,19375.0,19375.0,0,0,0,0,0,0
2016-12-26 09:44:00,09:44:40,09:44:40,7387,7397,19370.0,42,19375.0,41,19370.0,19370.0,19370.0,19370.0,25,-25,19370,16,19375,30
2016-12-26 09:45:00,09:45:57,09:45:57,7442,7458,19370.0,13,19375.0,53,19370.0,19370.0,19370.0,19370.0,21,-21,19370,12,19375,47
2016-12-26 09:46:00,09:46:51,09:46:51,7476,7476,19370.0,29,19375.0,64,19375.0,19375.0,19375.0,19375.0,1,1,19370,28,19375,63
2016-12-26 09:47:00,09:47:00,09:47:00,0,0,0.0,0,0.0,0,19375.0,19375.0,19375.0,19375.0,0,0,0,0,0,0
2016-12-26 09:48:00,09:48:09,09:48:13,7496,7498,19370.0,29,19375.0,69,19375.0,19375.0,19375.0,19375.0,2,2,19370,30,19375,68
2016-12-26 09:49:00,09:49:02,09:49:16,7512,7564,19370.0,24,19375.0,72,19370.0,19370.0,19365.0,19370.0,62,-58,19365,63,19370,18
2016-12-26 09:50:00,09:50:07,09:50:07,7599,7599,19365.0,64,19370.0,28,19365.0,19365.0,19365.0,19365.0,1,-1,19365,62,19370,33
2016-12-26 09:51:00,09:51:51,09:51:51,7609,7609,19365.0,64,19370.0,39,19365.0,19365.0,19365.0,19365.0,1,-1,19365,63,19370,38
2016-12-26 09:52:00,09:52:58,09:52:58,7614,7614,19365.0,66,19370.0,38,19370.0,19370.0,19370.0,19370.0,1,1,19365,67,19370,37
2016-12-26 09:53:00,09:53:15,09:53:27,7617,7683,19365.0,67,19370.0,37,19370.0,19370.0,19370.0,19370.0,86,32,19370,43,19375,40
2016-12-26 09:54:00,09:54:35,09:54:35,7711,7711,19370.0,52,19375.0,32,19375.0,19375.0,19375.0,19375.0,2,2,19370,53,19375,29
2016-12-26 09:55:00,09:55:07,09:55:47,7718,7733,19370.0,52,19375.0,30,19375.0,19375.0,19370.0,19370.0,11,-9,19370,32,19375,43
2016-12-26 09:56:00,09:56:09,09:56:52,7740,7788,19370.0,49,19375.0,29,19375.0,19375.0,19365.0,19370.0,55,-51,19370,7,19375,42
2016-12-26 09:57:00,09:57:46,09:57:46,7812,7812,19370.0,35,19375.0,33,19370.0,19370.0,19370.0,19370.0,2,-2,19370,33,19375,34
2016-12-26 09:58:00,09:58:00,09:58:00,0,0,0.0,0,0.0,0,19370.0,19370.0,19370.0,19370.0,0,0,0,0,0,0
2016-12-26 09:59:00,09:59:18,09:59:51,7832,7846,19370.0,14,19375.0,52,19375.0,19375.0,19370.0,19370.0,8,-2,19370,22,19375,44
2016-12-26 10:00:00,10:00:04,10:00:55,7855,7903,19370.0,23,19375.0,50,19370.0,19370.0,19370.0,19370.0,46,-46,19370,16,19375,39
2016-12-26 10:01:00,10:01:00,10:01:00,0,0,0.0,0,0.0,0,19370.0,19370.0,19370.0,19370.0,0,0,0,0,0,0
2016-12-26 10:02:00,10:02:00,10:02:00,0,0,0.0,0,0.0,0,19370.0,19370.0,19370.0,19370.0,0,0,0,0,0,0
2016-12-26 10:03:00,10:03:47,10:03:47,7928,7929,19370.0,42,19375.0,28,19370.0,19370.0,19370.0,19370.0,2,-2,19370,43,19375,30
2016-12-26 10:04:00,10:04:31,10:04:31,7935,7935,19370.0,42,19375.0,31,19370.0,19370.0,19370.0,19370.0,1,-1,19370,44,19375,33
2016-12-26 10:05:00,10:05:58,10:05:58,7945,7949,19370.0,47,19375.0,30,19375.0,19375.0,19375.0,19375.0,9,9,19375,22,19380,48
2016-12-26 10:06:00,10:06:02,10:06:32,7955,8018,19375.0,18,19380.0,48,19380.0,19380.0,19380.0,19380.0,69,69,19375,45,19380,27
2016-12-26 10:07:00,10:07:05,10:07:07,8041,8043,19375.0,38,19380.0,45,19380.0,19380.0,19380.0,19380.0,3,3,19375,43,19380,40
2016-12-26 10:08:00,10:08:16,10:08:42,8064,8093,19375.0,37,19380.0,56,19380.0,19380.0,19375.0,19375.0,29,-23,19370,39,19375,26
2016-12-26 10:09:00,10:09:00,10:09:00,0,0,0.0,0,0.0,0,19375.0,19375.0,19375.0,19375.0,0,0,0,0,0,0
2016-12-26 10:10:00,10:10:00,10:10:00,0,0,0.0,0,0.0,0,19375.0,19375.0,19375.0,19375.0,0,0,0,0,0,0
2016-12-26 10:11:00,10:11:18,10:11:18,8135,8135,19370.0,41,19375.0,37,19370.0,19370.0,19370.0,19370.0,2,-2,19370,39,19375,38
2016-12-26 10:12:00,10:12:00,10:12:00,0,0,0.0,0,0.0,0,19370.0,19370.0,19370.0,19370.0,0,0,0,0,0,0
2016-12-26 10:13:00,10:13:00,10:13:00,0,0,0.0,0,0.0,0,19370.0,19370.0,19370.0,19370.0,0,0,0,0,0,0
2016-12-26 10:14:00,10:14:19,10:14:28,8201,8206,19370.0,41,19375.0,31,19370.0,19375.0,19370.0,19375.0,2,0,19370,38,19375,33
2016-12-26 10:15:00,10:15:29,10:15:56,8234,8250,19370.0,42,19375.0,44,19375.0,19375.0,19370.0,19375.0,4,0,19370,37,19375,39
2016-12-26 10:16:00,10:16:59,10:16:59,8278,8280,19370.0,40,19375.0,42,19370.0,19370.0,19370.0,19370.0,5,-5,19370,37,19375,47
2016-12-26 10:17:00,10:17:02,10:17:02,8284,8304,19370.0,37,19375.0,49,19370.0,19370.0,19370.0,19370.0,32,-32,19370,29,19375,38
2016-12-26 10:18:00,10:18:26,10:18:49,8339,8348,19370.0,38,19375.0,29,19370.0,19370.0,19370.0,19370.0,4,-4,19370,39,19375,24
2016-12-26 10:19:00,10:19:00,10:19:00,0,0,0.0,0,0.0,0,19370.0,19370.0,19370.0,19370.0,0,0,0,0,0,0
2016-12-26 10:20:00,10:20:00,10:20:00,0,0,0.0,0,0.0,0,19370.0,19370.0,19370.0,19370.0,0,0,0,0,0,0
2016-12-26 10:21:00,10:21:18,10:21:50,8410,8427,19370.0,35,19375.0,39,19370.0,19370.0,19370.0,19370.0,9,-9,19370,26,19375,52
2016-12-26 10:22:00,10:22:00,10:22:00,0,0,0.0,0,0.0,0,19370.0,19370.0,19370.0,19370.0,0,0,0,0,0,0
2016-12-26 10:23:00,10:23:39,10:23:42,8472,8499,19370.0,35,19375.0,37,19370.0,19370.0,19370.0,19370.0,44,-44,19370,11,19375,47
2016-12-26 10:24:00,10:24:50,10:24:50,8555,8556,19370.0,20,19375.0,49,19370.0,19370.0,19370.0,19370.0,2,-2,19370,27,19375,50
2016-12-26 10:25:00,10:25:00,10:25:00,0,0,0.0,0,0.0,0,19370.0,19370.0,19370.0,19370.0,0,0,0,0,0,0
2016-12-26 10:26:00,10:26:16,10:26:16,8590,8590,19370.0,38,19375.0,41,19375.0,19375.0,19375.0,19375.0,1,1,19370,39,19375,40
2016-12-26 10:27:00,10:27:12,10:27:51,8600,8612,19370.0,46,19375.0,41,19370.0,19370.0,19370.0,19370.0,6,-6,19370,53,19375,40
2016-12-26 10:28:00,10:28:11,10:28:59,8624,8718,19370.0,58,19375.0,31,19375.0,19375.0,19370.0,19370.0,96,71,19370,49,19375,33
2016-12-26 10:29:00,10:29:00,10:29:57,8724,8768,19370.0,54,19375.0,19,19375.0,19375.0,19370.0,19375.0,15,-5,19370,63,19375,48
2016-12-26 10:30:00,10:30:00,10:30:29,8771,8885,19370.0,63,19375.0,48,19375.0,19385.0,19375.0,19380.0,125,59,19380,42,19385,47
2016-12-26 10:31:00,10:31:05,10:31:32,8902,8942,19380.0,55,19385.0,60,19385.0,19385.0,19385.0,19385.0,42,42,19380,53,19385,23
2016-12-26 10:32:00,10:32:23,10:32:53,8955,8979,19380.0,53,19385.0,33,19385.0,19385.0,19385.0,19385.0,12,12,19380,44,19385,24
2016-12-26 10:33:00,10:33:20,10:33:57,8983,8995,19380.0,44,19385.0,26,19385.0,19385.0,19385.0,19385.0,6,6,19380,42,19385,26
2016-12-26 10:34:00,10:34:18,10:34:18,8998,8998,19380.0,44,19385.0,24,19385.0,19385.0,19385.0,19385.0,1,1,19380,45,19385,26
2016-12-26 10:35:00,10:35:15,10:35:54,9004,9026,19380.0,45,19385.0,30,19380.0,19380.0,19380.0,19380.0,37,-37,19380,24,19385,40
2016-12-26 10:36:00,10:36:41,10:36:57,9034,9084,19380.0,32,19385.0,38,19385.0,19390.0,19385.0,19385.0,48,44,19385,50,19390,21
2016-12-26 10:37:00,10:37:03,10:37:24,9091,9182,19385.0,53,19390.0,16,19390.0,19400.0,19390.0,19395.0,120,36,19390,40,19395,35
2016-12-26 10:38:00,10:38:00,10:38:00,0,0,0.0,0,0.0,0,19395.0,19395.0,19395.0,19395.0,0,0,0,0,0,0
2016-12-26 10:39:00,10:39:45,10:39:45,9225,9229,19390.0,61,19395.0,24,19395.0,19395.0,19395.0,19395.0,9,9,19390,62,19395,15
2016-12-26 10:40:00,10:40:02,10:40:56,9234,9323,19390.0,64,19395.0,19,19395.0,19400.0,19395.0,19395.0,79,-11,19390,41,19395,22
2016-12-26 10:41:00,10:41:08,10:41:08,9329,9329,19390.0,44,19395.0,20,19395.0,19395.0,19395.0,19395.0,1,1,19390,45,19395,19
2016-12-26 10:42:00,10:42:00,10:42:00,0,0,0.0,0,0.0,0,19395.0,19395.0,19395.0,19395.0,0,0,0,0,0,0
2016-12-26 10:43:00,10:43:58,10:43:58,9351,9351,19390.0,56,19395.0,13,19395.0,19395.0,19395.0,19395.0,2,2,19390,57,19395,12
2016-12-26 10:44:00,10:44:24,10:44:56,9356,9372,19390.0,57,19395.0,41,19390.0,19395.0,19390.0,19395.0,5,3,19390,52,19395,38
2016-12-26 10:45:00,10:45:02,10:45:59,9375,9398,19390.0,52,19395.0,38,19395.0,19395.0,19395.0,19395.0,8,8,19390,43,19395,38
2016-12-26 10:46:00,10:46:05,10:46:05,9401,9401,19390.0,43,19395.0,38,19395.0,19395.0,19395.0,19395.0,1,1,19390,42,19395,37
2016-12-26 10:47:00,10:47:11,10:47:45,9411,9419,19390.0,50,19395.0,37,19395.0,19395.0,19395.0,19395.0,3,3,19390,52,19395,34
2016-12-26 10:48:00,10:48:03,10:48:55,9424,9450,19390.0,54,19395.0,34,19395.0,19395.0,19390.0,19390.0,8,4,19390,54,19395,32
2016-12-26 10:49:00,10:49:13,10:49:13,9452,9452,19390.0,54,19395.0,33,19395.0,19395.0,19395.0,19395.0,1,1,19390,57,19395,32
2016-12-26 10:50:00,10:50:02,10:50:56,9463,9486,19390.0,55,19395.0,38,19395.0,19395.0,19395.0,19395.0,8,8,19390,54,19395,33
2016-12-26 10:51:00,10:51:03,10:51:55,9489,9512,19390.0,55,19395.0,34,19395.0,19395.0,19390.0,19390.0,7,5,19390,47,19395,35
2016-12-26 10:52:00,10:52:00,10:52:36,9517,9536,19390.0,46,19395.0,45,19395.0,19395.0,19395.0,19395.0,10,10,19390,41,19395,35
2016-12-26 10:53:00,10:53:26,10:53:39,9543,9565,19390.0,44,19395.0,35,19390.0,19395.0,19390.0,19395.0,23,19,19390,46,19395,12
2016-12-26 10:54:00,10:54:33,10:54:33,9578,9579,19390.0,43,19395.0,30,19390.0,19390.0,19390.0,19390.0,3,-3,19390,40,19395,32
2016-12-26 10:55:00,10:55:34,10:55:34,9593,9593,19390.0,48,19395.0,28,19395.0,19395.0,19395.0,19395.0,1,1,19390,49,19395,33
2016-12-26 10:56:00,10:56:05,10:56:50,9599,9621,19390.0,51,19395.0,33,19395.0,19395.0,19390.0,19395.0,16,-4,19390,37,19395,39
2016-12-26 10:57:00,10:57:31,10:57:31,9624,9628,19390.0,37,19395.0,39,19390.0,19390.0,19390.0,19390.0,5,-5,19390,30,19395,47
2016-12-26 10:58:00,10:58:06,10:58:57,9632,9666,19390.0,42,19395.0,47,19390.0,19395.0,19390.0,19390.0,21,-13,19390,19,19390,20
2016-12-26 10:59:00,10:59:07,10:59:27,9670,9723,19390.0,37,19395.0,49,19390.0,19390.0,19385.0,19385.0,88,-68,19385,57,19390,18
2016-12-26 11:00:00,11:00:03,11:00:57,9738,9755,19385.0,22,19390.0,46,19385.0,19385.0,19380.0,19380.0,22,-22,19380,49,19385,27
2016-12-26 11:01:00,11:01:00,11:01:00,0,0,0.0,0,0.0,0,19380.0,19380.0,19380.0,19380.0,0,0,0,0,0,0
2016-12-26 11:02:00,11:02:49,11:02:49,9775,9775,19380.0,57,19385.0,24,19385.0,19385.0,19385.0,19385.0,1,1,19380,55,19385,23
2016-12-26 11:03:00,11:03:58,11:03:58,9782,9782,19380.0,55,19385.0,23,19380.0,19380.0,19380.0,19380.0,1,-1,19380,56,19385,22
2016-12-26 11:04:00,11:04:00,11:04:00,0,0,0.0,0,0.0,0,19380.0,19380.0,19380.0,19380.0,0,0,0,0,0,0
2016-12-26 11:05:00,11:05:28,11:05:28,9788,9788,19380.0,57,19385.0,25,19380.0,19380.0,19380.0,19380.0,1,-1,19380,56,19385,24
2016-12-26 11:06:00,11:06:58,11:06:58,9796,9796,19380.0,57,19385.0,27,19380.0,19380.0,19380.0,19380.0,1,-1,19380,56,19385,26
2016-12-26 11:07:00,11:07:00,11:07:00,0,0,0.0,0,0.0,0,19380.0,19380.0,19380.0,19380.0,0,0,0,0,0,0
2016-12-26 11:08:00,11:08:28,11:08:28,9802,9802,19380.0,54,19385.0,33,19380.0,19380.0,19380.0,19380.0,1,-1,19380,53,19385,34
2016-12-26 11:09:00,11:09:59,11:09:59,9819,9820,19380.0,65,19385.0,35,19380.0,19380.0,19380.0,19380.0,2,-2,19380,63,19385,34
2016-12-26 11:10:00,11:10:02,11:10:13,9824,9865,19380.0,64,19385.0,34,19385.0,19390.0,19385.0,19390.0,55,55,19385,45,19390,55
2016-12-26 11:11:00,11:11:00,11:11:00,0,0,0.0,0,0.0,0,19390.0,19390.0,19390.0,19390.0,0,0,0,0,0,0
2016-12-26 11:12:00,11:12:00,11:12:00,0,0,0.0,0,0.0,0,19390.0,19390.0,19390.0,19390.0,0,0,0,0,0,0
2016-12-26 11:13:00,11:13:22,11:13:22,9886,9906,19385.0,49,19390.0,54,19385.0,19385.0,19385.0,19385.0,47,-17,19385,28,19390,55
2016-12-26 11:14:00,11:14:00,11:14:00,0,0,0.0,0,0.0,0,19385.0,19385.0,19385.0,19385.0,0,0,0,0,0,0
2016-12-26 11:15:00,11:15:00,11:15:00,0,0,0.0,0,0.0,0,19385.0,19385.0,19385.0,19385.0,0,0,0,0,0,0
2016-12-26 11:16:00,11:16:00,11:16:23,9921,9935,19385.0,33,19390.0,56,19385.0,19385.0,19385.0,19385.0,11,-11,19380,71,19385,11
2016-12-26 11:17:00,11:17:00,11:17:00,0,0,0.0,0,0.0,0,19385.0,19385.0,19385.0,19385.0,0,0,0,0,0,0
2016-12-26 11:18:00,11:18:08,11:18:08,9944,9948,19380.0,81,19385.0,15,19385.0,19385.0,19385.0,19385.0,12,12,19385,29,19390,53
2016-12-26 11:19:00,11:19:00,11:19:00,0,0,0.0,0,0.0,0,19385.0,19385.0,19385.0,19385.0,0,0,0,0,0,0
2016-12-26 11:20:00,11:20:31,11:20:31,9969,9969,19385.0,32,19390.0,55,19385.0,19385.0,19385.0,19385.0,1,-1,19385,31,19390,53
2016-12-26 11:21:00,11:21:00,11:21:00,0,0,0.0,0,0.0,0,19385.0,19385.0,19385.0,19385.0,0,0,0,0,0,0
2016-12-26 11:22:00,11:22:01,11:22:35,9978,9990,19385.0,36,19390.0,52,19385.0,19390.0,19385.0,19390.0,20,18,19385,41,19390,40
2016-12-26 11:23:00,11:23:31,11:23:52,9998,10005,19385.0,40,19390.0,42,19385.0,19390.0,19385.0,19390.0,4,0,19385,36,19390,42
2016-12-26 11:24:00,11:24:00,11:24:00,0,0,0.0,0,0.0,0,19390.0,19390.0,19390.0,19390.0,0,0,0,0,0,0
2016-12-26 11:25:00,11:25:52,11:25:52,10021,10021,19385.0,37,19390.0,42,19385.0,19385.0,19385.0,19385.0,1,-1,19385,28,19390,46
2016-12-26 11:26:00,11:26:32,11:26:32,10035,10035,19385.0,36,19390.0,43,19385.0,19385.0,19385.0,19385.0,1,-1,19385,37,19390,40
2016-12-26 11:27:00,11:27:36,11:27:36,10050,10050,19385.0,29,19390.0,50,19390.0,19390.0,19390.0,19390.0,1,1,19385,30,19390,49
2016-12-26 11:28:00,11:28:02,11:28:54,10058,10098,19385.0,38,19390.0,44,19385.0,19385.0,19385.0,19385.0,37,-15,19380,85,19390,44
2016-12-26 11:29:00,11:29:14,11:29:58,10108,10177,19385.0,7,19390.0,48,19385.0,19385.0,19380.0,19385.0,75,15,19380,20,19385,10
2016-12-26 11:30:00,11:30:00,11:30:52,10179,10459,19380.0,82,19385.0,10,19380.0,19380.0,19370.0,19375.0,354,-100,19375,48,19380,32
2016-12-26 11:31:00,11:31:00,11:31:58,10476,10555,19375.0,51,19380.0,23,19380.0,19380.0,19375.0,19375.0,68,-14,19370,53,19375,32
2016-12-26 11:32:00,11:32:33,11:32:50,10567,10576,19370.0,55,19375.0,32,19370.0,19375.0,19370.0,19375.0,4,2,19370,54,19375,23
2016-12-26 11:33:00,11:33:02,11:33:23,10584,10659,19370.0,54,19375.0,30,19375.0,19385.0,19375.0,19385.0,72,33,19380,16,19385,34
2016-12-26 11:34:00,11:34:47,11:34:59,10690,10733,19380.0,46,19385.0,37,19380.0,19380.0,19375.0,19380.0,46,-46,19380,1,19385,52
2016-12-26 11:35:00,11:35:33,11:35:34,10765,10777,19380.0,24,19385.0,49,19380.0,19380.0,19380.0,19380.0,14,-12,19375,48,19380,24
2016-12-26 11:36:00,11:36:15,11:36:21,10812,10838,19375.0,48,19380.0,17,19380.0,19380.0,19375.0,19375.0,23,13,19375,38,19380,32
2016-12-26 11:37:00,11:37:00,11:37:00,0,0,0.0,0,0.0,0,19375.0,19375.0,19375.0,19375.0,0,0,0,0,0,0
2016-12-26 11:38:00,11:38:00,11:38:00,0,0,0.0,0,0.0,0,19375.0,19375.0,19375.0,19375.0,0,0,0,0,0,0
2016-12-26 11:39:00,11:39:45,11:39:47,10925,10957,19375.0,53,19380.0,35,19380.0,19385.0,19380.0,19385.0,61,61,19380,70,19385,27
2016-12-26 11:40:00,11:40:00,11:40:00,0,0,0.0,0,0.0,0,19385.0,19385.0,19385.0,19385.0,0,0,0,0,0,0
2016-12-26 11:41:00,11:41:22,11:41:25,11005,11007,19380.0,98,19385.0,24,19385.0,19385.0,19385.0,19385.0,3,3,19380,97,19385,17
2016-12-26 11:42:00,11:42:55,11:42:55,11044,11098,19380.0,46,19385.0,50,19380.0,19380.0,19375.0,19375.0,139,-135,19370,29,19375,34
2016-12-26 11:43:00,11:43:19,11:43:45,11132,11207,19370.0,54,19375.0,38,19375.0,19385.0,19375.0,19385.0,98,98,19380,55,19385,10
2016-12-26 11:44:00,11:44:00,11:44:52,11215,11272,19380.0,49,19385.0,26,19380.0,19380.0,19380.0,19380.0,37,-27,19375,81,19380,48
2016-12-26 11:45:00,11:45:21,11:45:39,11299,11353,19375.0,11,19380.0,88,19375.0,19375.0,19370.0,19375.0,72,-50,19375,10,19380,58
2016-12-26 11:46:00,11:46:00,11:46:00,0,0,0.0,0,0.0,0,19375.0,19375.0,19375.0,19375.0,0,0,0,0,0,0
2016-12-26 11:47:00,11:47:02,11:47:41,11401,11483,19375.0,15,19380.0,63,19380.0,19380.0,19370.0,19375.0,80,-42,19375,5,19380,60
2016-12-26 11:48:00,11:48:01,11:48:01,11492,11492,19375.0,13,19380.0,59,19375.0,19375.0,19375.0,19375.0,1,-1,19375,3,19380,60
2016-12-26 11:49:00,11:49:00,11:49:00,0,0,0.0,0,0.0,0,19375.0,19375.0,19375.0,19375.0,0,0,0,0,0,0
2016-12-26 11:50:00,11:50:01,11:50:59,11524,11565,19375.0,26,19380.0,59,19380.0,19380.0,19375.0,19375.0,20,-18,19370,38,19375,77
2016-12-26 11:51:00,11:51:12,11:51:13,11570,11580,19370.0,38,19375.0,77,19370.0,19370.0,19370.0,19370.0,25,-25,19370,7,19375,99
2016-12-26 11:52:00,11:52:31,11:52:59,11618,11655,19370.0,55,19375.0,51,19375.0,19375.0,19375.0,19375.0,31,31,19370,60,19375,27
2016-12-26 11:53:00,11:53:35,11:53:36,11670,11689,19370.0,60,19375.0,28,19370.0,19370.0,19370.0,19370.0,63,-63,19370,42,19375,47
2016-12-26 11:54:00,11:54:22,11:54:58,11715,11767,19370.0,48,19375.0,70,19370.0,19375.0,19370.0,19375.0,39,17,19370,42,19375,4
2016-12-26 11:55:00,11:55:00,11:55:58,11771,11872,19370.0,42,19375.0,5,19375.0,19375.0,19370.0,19375.0,87,49,19370,41,19375,2
2016-12-26 11:56:00,11:56:30,11:56:30,11888,11890,19370.0,40,19375.0,17,19375.0,19375.0,19375.0,19375.0,2,2,19370,41,19375,10
2016-12-26 11:57:00,11:57:10,11:57:17,11918,11945,19370.0,42,19375.0,24,19370.0,19375.0,19365.0,19375.0,38,-36,19370,46,19375,53
2016-12-26 11:58:00,11:58:40,11:58:53,11979,11993,19370.0,53,19375.0,34,19375.0,19375.0,19370.0,19370.0,15,-5,19370,39,19375,46
2016-12-26 11:59:00,11:59:38,11:59:38,12006,12007,19370.0,44,19375.0,39,19370.0,19370.0,19370.0,19370.0,2,-2,19370,43,19375,40
2016-12-26 12:00:00,12:00:18,12:00:33,12014,12017,19370.0,45,19375.0,38,19375.0,19375.0,19375.0,19375.0,2,2,19370,45,19375,37
2016-12-26 12:01:00,12:01:00,12:01:00,0,0,0.0,0,0.0,0,19375.0,19375.0,19375.0,19375.0,0,0,0,0,0,0
2016-12-26 12:02:00,12:02:07,12:02:56,12046,12091,19370.0,44,19375.0,42,19375.0,19375.0,19370.0,19370.0,39,-37,19370,8,19375,73
2016-12-26 12:03:00,12:03:49,12:03:58,12111,12144,19370.0,46,19375.0,36,19375.0,19375.0,19375.0,19375.0,57,15,19375,14,19380,53
2016-12-26 12:04:00,12:04:07,12:04:55,12157,12208,19375.0,17,19380.0,60,19375.0,19375.0,19375.0,19375.0,19,-1,19375,26,19380,51
2016-12-26 12:05:00,12:05:44,12:05:47,12237,12252,19375.0,28,19380.0,46,19380.0,19385.0,19380.0,19385.0,17,17,19380,24,19385,59
2016-12-26 12:06:00,12:06:56,12:06:56,12291,12291,19380.0,53,19385.0,51,19385.0,19385.0,19385.0,19385.0,1,1,19380,51,19385,47
2016-12-26 12:07:00,12:07:02,12:07:23,12296,12311,19380.0,51,19385.0,51,19385.0,19385.0,19380.0,19385.0,3,1,19380,51,19385,57
2016-12-26 12:08:00,12:08:21,12:08:51,12329,12350,19380.0,58,19385.0,59,19385.0,19385.0,19385.0,19385.0,14,14,19380,63,19385,41
2016-12-26 12:09:00,12:09:00,12:09:53,12353,12388,19380.0,63,19385.0,41,19385.0,19385.0,19380.0,19385.0,14,12,19380,60,19385,45
2016-12-26 12:10:00,12:10:00,12:10:59,12394,12565,19380.0,59,19385.0,49,19385.0,19395.0,19380.0,19390.0,249,183,19390,4,19395,53
2016-12-26 12:11:00,12:11:00,12:11:37,12566,12621,19385.0,59,19390.0,17,19390.0,19395.0,19390.0,19390.0,30,-7,19385,34,19390,53
2016-12-26 12:12:00,12:12:12,12:12:35,12635,12705,19385.0,31,19390.0,66,19385.0,19385.0,19380.0,19380.0,76,-30,19385,1,19390,70
2016-12-26 12:13:00,12:13:39,12:13:50,12734,12759,19385.0,21,19390.0,67,19385.0,19385.0,19385.0,19385.0,18,-6,19380,76,19385,20
2016-12-26 12:14:00,12:14:00,12:14:00,0,0,0.0,0,0.0,0,19385.0,19385.0,19385.0,19385.0,0,0,0,0,0,0
2016-12-26 12:15:00,12:15:00,12:15:45,12770,12796,19380.0,71,19385.0,31,19380.0,19380.0,19380.0,19380.0,4,-4,19380,64,19385,33
2016-12-26 12:16:00,12:16:11,12:16:11,12800,12800,19380.0,68,19385.0,32,19380.0,19380.0,19380.0,19380.0,2,-2,19380,65,19385,33
2016-12-26 12:17:00,12:17:11,12:17:11,12815,12815,19380.0,64,19385.0,35,19385.0,19385.0,19385.0,19385.0,1,1,19380,66,19385,29
2016-12-26 12:18:00,12:18:17,12:18:56,12840,12943,19380.0,71,19385.0,32,19380.0,19380.0,19375.0,19375.0,159,-119,19375,13,19380,72
2016-12-26 12:19:00,12:19:01,12:19:58,12951,13034,19375.0,21,19380.0,71,19380.0,19380.0,19375.0,19375.0,75,-7,19370,62,19375,12
2016-12-26 12:20:00,12:20:00,12:20:56,13037,13091,19370.0,60,19375.0,7,19375.0,19375.0,19375.0,19375.0,43,17,19370,65,19375,1
2016-12-26 12:21:00,12:21:03,12:21:18,13101,13124,19370.0,62,19375.0,6,19375.0,19375.0,19375.0,19375.0,10,10,19370,65,19375,4
2016-12-26 12:22:00,12:22:00,12:22:00,0,0,0.0,0,0.0,0,19375.0,19375.0,19375.0,19375.0,0,0,0,0,0,0
2016-12-26 12:23:00,12:23:13,12:23:50,13209,13281,19370.0,67,19375.0,19,19375.0,19380.0,19375.0,19375.0,49,-17,19375,7,19380,80
2016-12-26 12:24:00,12:24:05,12:24:20,13299,13331,19375.0,8,19380.0,76,19375.0,19375.0,19375.0,19375.0,23,15,19375,44,19380,72
2016-12-26 12:25:00,12:25:00,12:25:00,0,0,0.0,0,0.0,0,19375.0,19375.0,19375.0,19375.0,0,0,0,0,0,0
2016-12-26 12:26:00,12:26:09,12:26:09,13374,13374,19375.0,49,19380.0,76,19375.0,19375.0,19375.0,19375.0,1,-1,19375,44,19380,79
2016-12-26 12:27:00,12:27:20,12:27:58,13385,13448,19375.0,44,19380.0,77,19375.0,19375.0,19375.0,19375.0,42,-36,19375,13,19380,78
2016-12-26 12:28:00,12:28:25,12:28:36,13468,13532,19375.0,64,19380.0,66,19380.0,19385.0,19380.0,19380.0,105,57,19380,5,19385,70
2016-12-26 12:29:00,12:29:15,12:29:15,13564,13565,19380.0,50,19385.0,62,19385.0,19385.0,19385.0,19385.0,2,2,19380,52,19385,59
2016-12-26 12:30:00,12:30:52,12:30:53,13587,13610,19380.0,44,19385.0,77,19380.0,19380.0,19375.0,19375.0,52,-52,19375,58,19380,40
2016-12-26 12:31:00,12:31:00,12:31:00,0,0,0.0,0,0.0,0,19375.0,19375.0,19375.0,19375.0,0,0,0,0,0,0
2016-12-26 12:32:00,12:32:00,12:32:00,0,0,0.0,0,0.0,0,19375.0,19375.0,19375.0,19375.0,0,0,0,0,0,0
2016-12-26 12:33:00,12:33:00,12:33:00,0,0,0.0,0,0.0,0,19375.0,19375.0,19375.0,19375.0,0,0,0,0,0,0
2016-12-26 12:34:00,12:34:02,12:34:42,13678,13764,19375.0,57,19380.0,36,19380.0,19380.0,19380.0,19380.0,78,66,19380,2,19385,69
2016-12-26 12:35:00,12:35:05,12:35:05,13776,13785,19380.0,12,19385.0,64,19380.0,19380.0,19380.0,19380.0,15,-15,19380,3,19385,66
2016-12-26 12:36:00,12:36:41,12:36:41,13816,13816,19380.0,30,19385.0,69,19380.0,19380.0,19380.0,19380.0,1,-1,19380,28,19385,74
2016-12-26 12:37:00,12:37:00,12:37:00,0,0,0.0,0,0.0,0,19380.0,19380.0,19380.0,19380.0,0,0,0,0,0,0
2016-12-26 12:38:00,12:38:19,12:38:45,13843,13861,19380.0,29,19385.0,76,19385.0,19385.0,19380.0,19380.0,16,14,19380,40,19385,60
2016-12-26 12:39:00,12:39:00,12:39:00,0,0,0.0,0,0.0,0,19380.0,19380.0,19380.0,19380.0,0,0,0,0,0,0
2016-12-26 12:40:00,12:40:15,12:40:50,13887,13897,19380.0,36,19385.0,66,19380.0,19385.0,19380.0,19385.0,2,0,19380,49,19385,62
2016-12-26 12:41:00,12:41:39,12:41:45,13907,13912,19380.0,50,19385.0,63,19385.0,19385.0,19380.0,19380.0,4,0,19380,44,19385,67
2016-12-26 12:42:00,12:42:03,12:42:51,13921,14032,19380.0,35,19385.0,69,19385.0,19385.0,19380.0,19385.0,166,76,19380,55,19385,38
2016-12-26 12:43:00,12:43:48,12:43:48,14049,14049,19380.0,31,19385.0,71,19380.0,19380.0,19380.0,19380.0,1,-1,19380,30,19385,73
2016-12-26 12:44:00,12:44:00,12:44:00,0,0,0.0,0,0.0,0,19380.0,19380.0,19380.0,19380.0,0,0,0,0,0,0
2016-12-26 12:45:00,12:45:08,12:45:08,14066,14066,19380.0,27,19385.0,76,19380.0,19380.0,19380.0,19380.0,1,-1,19380,24,19385,74
2016-12-26 12:46:00,12:46:19,12:46:52,14090,14105,19380.0,73,19385.0,45,19385.0,19385.0,19385.0,19385.0,14,14,19380,64,19385,51
2016-12-26 12:47:00,12:47:46,12:47:46,14122,14122,19380.0,69,19385.0,46,19380.0,19380.0,19380.0,19380.0,1,-1,19380,68,19385,47
2016-12-26 12:48:00,12:48:17,12:48:17,14131,14132,19380.0,63,19385.0,59,19385.0,19385.0,19385.0,19385.0,2,2,19380,66,19385,53
2016-12-26 12:49:00,12:49:17,12:49:40,14161,14167,19380.0,51,19385.0,69,19380.0,19380.0,19380.0,19380.0,3,-3,19380,65,19385,40
2016-12-26 12:50:00,12:50:00,12:50:00,0,0,0.0,0,0.0,0,19380.0,19380.0,19380.0,19380.0,0,0,0,0,0,0
2016-12-26 12:51:00,12:51:26,12:51:26,14191,14191,19380.0,58,19385.0,69,19385.0,19385.0,19385.0,19385.0,1,1,19380,60,19385,66
2016-12-26 12:52:00,12:52:17,12:52:17,14207,14207,19380.0,61,19385.0,49,19380.0,19380.0,19380.0,19380.0,2,-2,19380,59,19385,51
2016-12-26 12:53:00,12:53:00,12:53:55,14221,14227,19380.0,57,19385.0,59,19385.0,19385.0,19385.0,19385.0,3,3,19380,57,19385,49
2016-12-26 12:54:00,12:54:29,12:54:29,14237,14237,19380.0,61,19385.0,49,19385.0,19385.0,19385.0,19385.0,2,2,19380,60,19385,47
2016-12-26 12:55:00,12:55:18,12:55:23,14255,14260,19380.0,38,19385.0,76,19380.0,19380.0,19380.0,19380.0,2,-2,19380,38,19385,70
2016-12-26 12:56:00,12:56:14,12:56:55,14274,14289,19380.0,45,19385.0,67,19380.0,19385.0,19380.0,19380.0,4,-2,19380,31,19385,72
2016-12-26 12:57:00,12:57:05,12:57:28,14293,14360,19380.0,36,19385.0,75,19380.0,19380.0,19375.0,19380.0,68,-42,19380,12,19385,65
2016-12-26 12:58:00,12:58:47,12:58:48,14389,14391,19380.0,47,19385.0,66,19380.0,19380.0,19380.0,19380.0,2,-2,19380,41,19385,67
2016-12-26 12:59:00,12:59:21,12:59:48,14404,14428,19380.0,55,19385.0,59,19380.0,19380.0,19380.0,19380.0,4,-4,19380,51,19385,60
2016-12-26 13:00:00,13:00:11,13:00:52,14438,14459,19380.0,48,19385.0,63,19380.0,19385.0,19380.0,19380.0,5,-1,19380,45,19385,68
2016-12-26 13:01:00,13:01:19,13:01:20,14461,14463,19380.0,45,19385.0,69,19380.0,19380.0,19380.0,19380.0,3,-3,19380,42,19385,68
2016-12-26 13:02:00,13:02:11,13:02:11,14487,14487,19380.0,53,19385.0,44,19380.0,19380.0,19380.0,19380.0,1,-1,19380,52,19385,43
2016-12-26 13:03:00,13:03:02,13:03:41,14500,14568,19380.0,50,19385.0,58,19380.0,19385.0,19380.0,19385.0,95,93,19380,75,19385,12
2016-12-26 13:04:00,13:04:12,13:04:44,14584,14589,19380.0,76,19385.0,50,19385.0,19385.0,19380.0,19380.0,2,0,19380,77,19385,49
2016-12-26 13:05:00,13:05:26,13:05:50,14602,14615,19380.0,50,19385.0,83,19385.0,19385.0,19380.0,19380.0,3,-1,19380,44,19385,86
2016-12-26 13:06:00,13:06:04,13:06:46,14617,14637,19380.0,44,19385.0,89,19385.0,19385.0,19380.0,19385.0,6,2,19380,47,19385,85
2016-12-26 13:07:00,13:07:17,13:07:20,14647,14651,19380.0,79,19385.0,53,19380.0,19380.0,19380.0,19380.0,2,-2,19380,77,19385,48
2016-12-26 13:08:00,13:08:08,13:08:59,14659,14673,19380.0,41,19385.0,85,19380.0,19385.0,19380.0,19380.0,4,-2,19380,38,19385,88
2016-12-26 13:09:00,13:09:08,13:09:50,14679,14698,19380.0,35,19385.0,89,19380.0,19385.0,19380.0,19380.0,12,-10,19380,39,19385,86
2016-12-26 13:10:00,13:10:20,13:10:51,14712,14724,19380.0,75,19385.0,47,19380.0,19385.0,19380.0,19380.0,5,-3,19380,70,19385,56
2016-12-26 13:11:00,13:11:32,13:11:32,14739,14739,19380.0,67,19385.0,66,19380.0,19380.0,19380.0,19380.0,1,-1,19380,66,19385,67
2016-12-26 13:12:00,13:12:23,13:12:23,14753,14754,19380.0,59,19385.0,97,19380.0,19380.0,19380.0,19380.0,2,-2,19380,57,19385,96
2016-12-26 13:13:00,13:13:14,13:13:21,14769,14777,19380.0,54,19385.0,95,19380.0,19380.0,19380.0,19380.0,2,-2,19380,51,19385,58
2016-12-26 13:14:00,13:14:01,13:14:56,14791,14881,19380.0,20,19385.0,104,19380.0,19380.0,19375.0,19380.0,92,-58,19380,3,19385,90
2016-12-26 13:15:00,13:15:40,13:15:47,14935,14945,19380.0,11,19385.0,89,19380.0,19380.0,19380.0,19380.0,2,-2,19380,33,19385,88
2016-12-26 13:16:00,13:16:07,13:16:29,14954,15026,19380.0,29,19385.0,91,19380.0,19380.0,19380.0,19380.0,81,-69,19380,3,19385,84
2016-12-26 13:17:00,13:17:15,13:17:36,15047,15086,19380.0,10,19385.0,87,19380.0,19380.0,19380.0,19380.0,24,-24,19380,10,19385,102
2016-12-26 13:18:00,13:18:10,13:18:58,15102,15155,19380.0,18,19385.0,107,19380.0,19380.0,19380.0,19380.0,40,-40,19380,8,19385,79
2016-12-26 13:19:00,13:19:07,13:19:57,15158,15211,19380.0,7,19385.0,80,19380.0,19380.0,19375.0,19375.0,22,-22,19380,1,19380,23
2016-12-26 13:20:00,13:20:03,13:20:14,15215,15268,19375.0,74,19380.0,32,19380.0,19380.0,19375.0,19375.0,68,50,19375,69,19380,27
2016-12-26 13:21:00,13:21:20,13:21:48,15307,15352,19375.0,75,19380.0,63,19380.0,19380.0,19375.0,19380.0,69,29,19375,67,19380,10
2016-12-26 13:22:00,13:22:44,13:22:44,15382,15394,19375.0,19,19380.0,82,19375.0,19375.0,19375.0,19375.0,19,-19,19375,8,19380,84
2016-12-26 13:23:00,13:23:17,13:23:26,15413,15444,19375.0,44,19380.0,80,19375.0,19380.0,19375.0,19380.0,48,40,19375,87,19385,71
2016-12-26 13:24:00,13:24:07,13:24:56,15464,15529,19375.0,82,19380.0,39,19375.0,19380.0,19375.0,19380.0,40,8,19380,36,19385,74
2016-12-26 13:25:00,13:25:32,13:25:57,15542,15607,19380.0,44,19385.0,71,19385.0,19385.0,19385.0,19385.0,72,35,19380,98,19390,74
2016-12-26 13:26:00,13:26:00,13:26:36,15610,15653,19380.0,98,19390.0,74,19385.0,19385.0,19385.0,19385.0,38,-19,19385,4,19390,85
2016-12-26 13:27:00,13:27:01,13:27:57,15679,15737,19385.0,26,19390.0,86,19385.0,19390.0,19385.0,19385.0,26,-16,19385,73,19390,71
2016-12-26 13:28:00,13:28:17,13:28:51,15745,15849,19385.0,68,19390.0,73,19385.0,19395.0,19385.0,19390.0,117,-35,19390,19,19395,75
2016-12-26 13:29:00,13:29:02,13:29:57,15864,15929,19390.0,23,19395.0,77,19390.0,19390.0,19385.0,19385.0,71,-69,19385,71,19390,49
2016-12-26 13:30:00,13:30:02,13:30:58,15934,16009,19385.0,63,19390.0,49,19390.0,19390.0,19390.0,19390.0,41,23,19385,108,19390,11
2016-12-26 13:31:00,13:31:06,13:31:42,16019,16110,19385.0,113,19390.0,2,19385.0,19390.0,19385.0,19390.0,61,-26,19390,5,19395,82
2016-12-26 13:32:00,13:32:05,13:32:58,16131,16214,19390.0,3,19395.0,81,19390.0,19390.0,19390.0,19390.0,50,34,19385,106,19390,3
2016-12-26 13:33:00,13:33:00,13:33:00,0,0,0.0,0,0.0,0,19390.0,19390.0,19390.0,19390.0,0,0,0,0,0,0
2016-12-26 13:34:00,13:34:07,13:34:57,16239,16257,19385.0,99,19390.0,29,19385.0,19390.0,19385.0,19385.0,3,-1,19385,90,19390,64
2016-12-26 13:35:00,13:35:47,13:35:47,16269,16269,19385.0,99,19390.0,63,19385.0,19385.0,19385.0,19385.0,1,-1,19385,98,19390,61
2016-12-26 13:36:00,13:36:03,13:36:37,16276,16289,19385.0,88,19390.0,61,19385.0,19385.0,19385.0,19385.0,2,-2,19385,86,19390,67
2016-12-26 13:37:00,13:37:08,13:37:27,16301,16313,19385.0,87,19390.0,71,19390.0,19390.0,19385.0,19385.0,4,0,19385,94,19390,56
2016-12-26 13:38:00,13:38:02,13:38:56,16327,16350,19385.0,94,19390.0,57,19390.0,19390.0,19385.0,19385.0,8,0,19385,96,19390,47
2016-12-26 13:39:00,13:39:07,13:39:39,16358,16433,19385.0,95,19390.0,47,19385.0,19395.0,19385.0,19395.0,70,15,19390,26,19395,77
2016-12-26 13:40:00,13:40:02,13:40:47,16447,16494,19390.0,14,19395.0,87,19390.0,19390.0,19390.0,19390.0,15,-11,19390,10,19395,82
2016-12-26 13:41:00,13:41:35,13:41:37,16532,16539,19390.0,10,19395.0,88,19390.0,19390.0,19390.0,19390.0,3,-3,19390,24,19395,83
2016-12-26 13:42:00,13:42:27,13:42:59,16559,16644,19390.0,17,19395.0,101,19390.0,19390.0,19390.0,19390.0,81,-53,19385,94,19390,16
2016-12-26 13:43:00,13:43:02,13:43:56,16648,16711,19390.0,1,19395.0,86,19390.0,19390.0,19390.0,19390.0,56,0,19390,6,19395,62
2016-12-26 13:44:00,13:44:01,13:44:57,16718,16766,19390.0,14,19395.0,57,19390.0,19390.0,19385.0,19385.0,14,2,19385,69,19390,43
2016-12-26 13:45:00,13:45:06,13:45:08,16772,16774,19385.0,69,19390.0,48,19385.0,19385.0,19385.0,19385.0,2,-2,19385,65,19390,47
2016-12-26 13:46:00,13:46:09,13:46:43,16798,16869,19385.0,70,19390.0,89,19385.0,19385.0,19385.0,19385.0,61,-23,19385,7,19390,89
2016-12-26 13:47:00,13:47:16,13:47:57,16885,16898,19385.0,33,19390.0,90,19385.0,19385.0,19385.0,19385.0,2,-2,19385,33,19390,91
2016-12-26 13:48:00,13:48:08,13:48:08,16905,16907,19385.0,38,19390.0,90,19385.0,19385.0,19385.0,19385.0,20,-20,19385,12,19390,91
2016-12-26 13:49:00,13:49:27,13:49:31,16932,16951,19385.0,19,19390.0,87,19385.0,19385.0,19385.0,19385.0,20,-20,19385,4,19390,85
2016-12-26 13:50:00,13:50:09,13:50:11,16991,17004,19385.0,14,19390.0,87,19385.0,19385.0,19380.0,19380.0,14,-10,19380,69,19385,45
2016-12-26 13:51:00,13:51:43,13:51:43,17060,17060,19380.0,108,19385.0,73,19380.0,19380.0,19380.0,19380.0,1,-1,19380,107,19385,72
2016-12-26 13:52:00,13:52:10,13:52:32,17070,17116,19380.0,105,19385.0,75,19385.0,19385.0,19385.0,19385.0,61,61,19380,104,19385,61
2016-12-26 13:53:00,13:53:17,13:53:58,17133,17322,19380.0,112,19385.0,55,19385.0,19385.0,19370.0,19370.0,296,-44,19370,89,19375,58
2016-12-26 13:54:00,13:54:00,13:54:51,17326,17458,19370.0,89,19375.0,61,19370.0,19370.0,19365.0,19370.0,147,-7,19365,123,19370,40
2016-12-26 13:55:00,13:55:00,13:55:46,17475,17651,19365.0,116,19370.0,37,19365.0,19365.0,19360.0,19365.0,231,-111,19365,11,19370,135
2016-12-26 13:56:00,13:56:01,13:56:56,17674,17750,19365.0,56,19370.0,129,19365.0,19365.0,19365.0,19365.0,90,-60,19360,88,19365,44
2016-12-26 13:57:00,13:57:08,13:57:46,17762,17822,19360.0,92,19365.0,51,19365.0,19365.0,19365.0,19365.0,104,88,19365,49,19370,44
2016-12-26 13:58:00,13:58:05,13:58:59,17836,18024,19365.0,99,19370.0,55,19370.0,19370.0,19365.0,19370.0,204,89,19365,88,19370,3
2016-12-26 13:59:00,13:59:00,13:59:59,18025,18224,19365.0,92,19370.0,10,19370.0,19375.0,19365.0,19365.0,149,-47,19360,99,19370,58
2016-12-26 14:00:00,14:00:00,14:00:56,18226,18576,19360.0,99,19365.0,25,19365.0,19375.0,19360.0,19370.0,587,80,19365,88,19370,17
2016-12-26 14:01:00,14:01:00,14:01:45,18580,18631,19365.0,88,19370.0,15,19370.0,19375.0,19370.0,19375.0,31,30,19370,87,19375,51
2016-12-26 14:02:00,14:02:00,14:02:47,18641,18816,19370.0,45,19375.0,108,19375.0,19375.0,19360.0,19360.0,300,-278,19360,12,19365,174
2016-12-26 14:03:00,14:03:00,14:03:59,18843,18913,19360.0,30,19365.0,103,19365.0,19365.0,19360.0,19365.0,58,-22,19360,90,19365,39
2016-12-26 14:04:00,14:04:00,14:04:58,18914,19017,19360.0,86,19365.0,46,19365.0,19370.0,19360.0,19370.0,93,57,19365,25,19370,126
2016-12-26 14:05:00,14:05:33,14:05:41,19030,19047,19365.0,26,19370.0,126,19365.0,19365.0,19365.0,19365.0,24,-24,19365,15,19370,106
2016-12-26 14:06:00,14:06:07,14:06:49,19061,19142,19365.0,9,19370.0,107,19365.0,19365.0,19355.0,19355.0,186,-184,19350,53,19355,9
2016-12-26 14:07:00,14:07:05,14:07:56,19160,19365,19350.0,98,19355.0,36,19350.0,19350.0,19340.0,19345.0,256,-166,19340,91,19345,24
2016-12-26 14:08:00,14:08:14,14:08:55,19375,19400,19340.0,94,19345.0,40,19345.0,19345.0,19340.0,19340.0,16,10,19340,91,19345,36
2016-12-26 14:09:00,14:09:02,14:09:57,19409,19590,19340.0,89,19345.0,36,19345.0,19345.0,19335.0,19340.0,196,-104,19335,23,19340,2
