,ST,ET,sidx,eidx,bB,bBS,bA,bAS,O,H,L,C,V,OF,eB,eBS,eA,eAS
2017-01-10 08:00:00,08:00:00,08:00:57,3086,3707,19390.0,42,19395.0,42,19390.0,19400.0,19365.0,19365.0,803,-243,19365,50,19370,72
2017-01-10 08:01:00,08:01:00,08:01:54,3717,4151,19365.0,53,19370.0,71,19365.0,19365.0,19355.0,19365.0,586,-172,19365,57,19370,70
2017-01-10 08:02:00,08:02:00,08:02:53,4164,4664,19365.0,84,19370.0,47,19370.0,19370.0,19355.0,19360.0,719,276,19355,50,19360,20
2017-01-10 08:03:00,08:03:00,08:03:57,4674,4946,19355.0,49,19360.0,21,19360.0,19370.0,19360.0,19370.0,275,177,19365,42,19370,20
2017-01-10 08:04:00,08:04:01,08:04:59,4950,5285,19365.0,42,19370.0,24,19370.0,19370.0,19355.0,19355.0,416,-333,19355,4,19360,59
2017-01-10 08:05:00,08:05:00,08:05:52,5288,5599,19355.0,4,19360.0,59,19355.0,19360.0,19350.0,19360.0,397,131,19360,17,19365,53
2017-01-10 08:06:00,08:06:03,08:06:55,5614,5803,19360.0,29,19365.0,56,19360.0,19375.0,19360.0,19370.0,152,46,19370,33,19375,52
2017-01-10 08:07:00,08:07:05,08:07:59,5818,5971,19370.0,42,19375.0,41,19370.0,19380.0,19370.0,19375.0,88,-22,19375,4,19380,52
2017-01-10 08:08:00,08:08:00,08:08:59,5974,6082,19375.0,4,19380.0,52,19375.0,19375.0,19370.0,19370.0,55,-33,19370,32,19375,83
2017-01-10 08:09:00,08:09:00,08:09:59,6084,6238,19370.0,32,19375.0,82,19370.0,19375.0,19370.0,19375.0,123,-1,19370,48,19375,14
2017-01-10 08:10:00,08:10:00,08:10:57,6240,6426,19370.0,47,19375.0,14,19375.0,19380.0,19370.0,19375.0,117,25,19370,24,19375,70
2017-01-10 08:11:00,08:11:05,08:11:49,6439,6644,19370.0,20,19375.0,78,19370.0,19370.0,19365.0,19365.0,178,-60,19365,18,19370,58
2017-01-10 08:12:00,08:12:09,08:12:54,6667,6874,19365.0,31,19370.0,74,19365.0,19375.0,19365.0,19370.0,208,40,19370,2,19375,98
2017-01-10 08:13:00,08:13:00,08:13:59,6890,7116,19370.0,30,19375.0,93,19370.0,19375.0,19365.0,19375.0,260,98,19375,59,19380,50
2017-01-10 08:14:00,08:14:00,08:14:59,7119,7318,19375.0,59,19380.0,50,19375.0,19375.0,19370.0,19375.0,248,-52,19370,49,19375,63
2017-01-10 08:15:00,08:15:04,08:15:59,7331,7556,19370.0,40,19375.0,131,19375.0,19385.0,19370.0,19380.0,333,137,19380,21,19385,61
2017-01-10 08:16:00,08:16:01,08:16:53,7558,7773,19380.0,21,19385.0,59,19380.0,19385.0,19375.0,19375.0,161,-66,19370,37,19375,32
2017-01-10 08:17:00,08:17:00,08:17:59,7790,7964,19370.0,38,19375.0,38,19375.0,19380.0,19375.0,19375.0,119,25,19370,38,19375,1
2017-01-10 08:18:00,08:18:00,08:18:58,7965,8564,19370.0,41,19375.0,3,19375.0,19395.0,19365.0,19390.0,713,207,19390,10,19395,51
2017-01-10 08:19:00,08:19:00,08:19:59,8570,8815,19390.0,41,19395.0,51,19390.0,19395.0,19385.0,19395.0,250,36,19390,46,19395,32
2017-01-10 08:20:00,08:20:04,08:20:56,8825,9012,19390.0,50,19395.0,30,19395.0,19400.0,19390.0,19400.0,300,156,19395,48,19400,12
2017-01-10 08:21:00,08:21:03,08:21:56,9026,9263,19395.0,56,19400.0,31,19395.0,19405.0,19395.0,19405.0,191,21,19405,14,19410,55
2017-01-10 08:22:00,08:22:04,08:22:56,9273,9366,19405.0,25,19410.0,57,19405.0,19410.0,19405.0,19405.0,48,-16,19400,61,19405,26
2017-01-10 08:23:00,08:23:00,08:23:43,9371,9522,19400.0,61,19405.0,27,19400.0,19405.0,19400.0,19405.0,137,78,19405,11,19410,51
2017-01-10 08:24:00,08:24:00,08:24:56,9535,9708,19405.0,37,19410.0,54,19405.0,19410.0,19405.0,19405.0,131,-25,19405,41,19410,41
2017-01-10 08:25:00,08:25:01,08:25:58,9716,9870,19405.0,42,19410.0,40,19405.0,19410.0,19400.0,19405.0,115,51,19405,46,19410,45
2017-01-10 08:26:00,08:26:00,08:26:59,9876,10066,19405.0,54,19410.0,43,19405.0,19410.0,19395.0,19395.0,167,-103,19395,48,19400,25
2017-01-10 08:27:00,08:27:01,08:27:57,10071,10225,19395.0,55,19400.0,7,19400.0,19405.0,19395.0,19405.0,110,48,19405,12,19410,45
2017-01-10 08:28:00,08:28:02,08:28:55,10231,10344,19405.0,1,19410.0,45,19405.0,19405.0,19400.0,19400.0,148,-118,19400,1,19405,58
2017-01-10 08:29:00,08:29:00,08:29:42,10355,10432,19400.0,7,19405.0,57,19400.0,19405.0,19400.0,19405.0,59,37,19400,42,19405,20
2017-01-10 08:30:00,08:30:05,08:30:36,10450,10558,19400.0,44,19405.0,36,19400.0,19405.0,19395.0,19395.0,83,-35,19395,76,19400,29
2017-01-10 08:31:00,08:31:00,08:31:59,10573,10695,19395.0,76,19400.0,45,19395.0,19395.0,19385.0,19385.0,117,-115,19385,37,19390,79
2017-01-10 08:32:00,08:32:00,08:32:52,10697,10848,19385.0,37,19390.0,82,19385.0,19385.0,19380.0,19385.0,104,-50,19385,38,19390,44
2017-01-10 08:33:00,08:33:02,08:33:21,10861,10916,19385.0,29,19390.0,50,19385.0,19390.0,19385.0,19390.0,41,31,19385,39,19390,19
2017-01-10 08:34:00,08:34:03,08:34:37,10936,11127,19385.0,41,19390.0,48,19390.0,19390.0,19380.0,19380.0,223,5,19380,26,19385,48
2017-01-10 08:35:00,08:35:00,08:35:56,11147,11364,19380.0,33,19385.0,47,19380.0,19385.0,19380.0,19380.0,275,-55,19380,23,19385,42
2017-01-10 08:36:00,08:36:10,08:36:58,11378,11468,19380.0,29,19385.0,47,19380.0,19385.0,19380.0,19385.0,76,56,19385,10,19390,50
2017-01-10 08:37:00,08:37:05,08:37:56,11482,11778,19385.0,23,19390.0,49,19385.0,19395.0,19380.0,19385.0,387,97,19380,36,19385,43
2017-01-10 08:38:00,08:38:12,08:38:42,11802,11964,19380.0,34,19385.0,50,19380.0,19380.0,19375.0,19380.0,141,-23,19375,31,19380,34
2017-01-10 08:39:00,08:39:06,08:39:35,11986,12063,19375.0,44,19380.0,29,19375.0,19380.0,19375.0,19380.0,57,51,19375,55,19385,56
2017-01-10 08:40:00,08:40:00,08:40:14,12079,12097,19375.0,48,19380.0,24,19375.0,19375.0,19375.0,19375.0,5,-5,19375,47,19380,40
2017-01-10 08:41:00,08:41:00,08:41:32,12130,12206,19375.0,47,19380.0,36,19375.0,19375.0,19365.0,19365.0,94,-90,19365,61,19370,56
2017-01-10 08:42:00,08:42:00,08:42:51,12232,12407,19365.0,49,19370.0,76,19365.0,19380.0,19365.0,19375.0,193,139,19375,22,19380,45
2017-01-10 08:43:00,08:43:01,08:43:51,12421,12578,19375.0,46,19380.0,38,19375.0,19385.0,19375.0,19385.0,124,72,19385,15,19390,33
2017-01-10 08:44:00,08:44:02,08:44:57,12591,12732,19385.0,56,19390.0,22,19385.0,19390.0,19385.0,19385.0,73,-9,19385,20,19390,42
2017-01-10 08:45:00,08:45:03,08:45:58,12735,12849,19385.0,20,19390.0,42,19385.0,19390.0,19380.0,19385.0,57,-35,19385,45,19390,39
2017-01-10 08:46:00,08:46:04,08:46:59,12857,13037,19385.0,43,19390.0,34,19385.0,19390.0,19380.0,19380.0,90,-44,19380,30,19385,33
2017-01-10 08:47:00,08:47:04,08:47:56,13043,13112,19380.0,31,19385.0,37,19380.0,19380.0,19380.0,19380.0,25,-25,19380,32,19385,37
2017-01-10 08:48:00,08:48:00,08:48:59,13118,13187,19380.0,34,19385.0,36,19380.0,19385.0,19380.0,19380.0,16,-14,19380,36,19385,39
2017-01-10 08:49:00,08:49:04,08:49:55,13193,13306,19380.0,36,19385.0,38,19385.0,19390.0,19380.0,19390.0,74,64,19385,43,19390,27
2017-01-10 08:50:00,08:50:06,08:50:57,13321,13447,19385.0,44,19390.0,30,19390.0,19390.0,19380.0,19385.0,88,6,19385,17,19390,49
2017-01-10 08:51:00,08:51:03,08:51:56,13452,13547,19385.0,17,19390.0,49,19385.0,19390.0,19385.0,19385.0,53,-29,19380,50,19390,49
2017-01-10 08:52:00,08:52:03,08:52:53,13554,13661,19380.0,47,19385.0,4,19380.0,19390.0,19380.0,19385.0,43,-9,19385,1,19390,48
2017-01-10 08:53:00,08:53:01,08:53:59,13674,13822,19385.0,8,19390.0,47,19385.0,19390.0,19385.0,19385.0,112,4,19380,42,19385,9
2017-01-10 08:54:00,08:54:00,08:54:59,13825,14099,19380.0,42,19385.0,9,19380.0,19380.0,19365.0,19370.0,235,-17,19370,27,19375,57
2017-01-10 08:55:00,08:55:00,08:55:53,14102,14211,19370.0,27,19375.0,57,19370.0,19375.0,19370.0,19375.0,61,9,19375,20,19380,48
2017-01-10 08:56:00,08:56:00,08:56:50,14217,14323,19375.0,17,19380.0,51,19375.0,19380.0,19370.0,19370.0,63,-59,19370,31,19375,53
2017-01-10 08:57:00,08:57:00,08:57:55,14329,14516,19370.0,32,19375.0,51,19370.0,19375.0,19370.0,19375.0,207,135,19375,21,19380,53
2017-01-10 08:58:00,08:58:11,08:58:52,14528,14576,19375.0,45,19380.0,61,19375.0,19375.0,19375.0,19375.0,45,-45,19375,28,19380,82
2017-01-10 08:59:00,08:59:02,08:59:53,14580,14668,19375.0,28,19380.0,83,19375.0,19375.0,19370.0,19370.0,50,-46,19370,23,19375,36
2017-01-10 09:00:00,09:00:03,09:00:42,14684,14815,19370.0,30,19375.0,60,19370.0,19375.0,19370.0,19370.0,80,-74,19370,11,19375,68
2017-01-10 09:01:00,09:01:02,09:01:58,14843,14987,19370.0,28,19375.0,68,19370.0,19375.0,19360.0,19360.0,100,-50,19360,61,19365,38
2017-01-10 09:02:00,09:02:00,09:02:49,14991,15057,19360.0,62,19365.0,37,19360.0,19360.0,19355.0,19355.0,55,-55,19355,54,19360,92
2017-01-10 09:03:00,09:03:00,09:03:42,15064,15247,19355.0,54,19360.0,94,19355.0,19365.0,19355.0,19360.0,222,70,19360,19,19365,48
2017-01-10 09:04:00,09:04:05,09:04:59,15267,15343,19360.0,51,19365.0,43,19365.0,19365.0,19365.0,19365.0,66,6,19360,45,19365,18
2017-01-10 09:05:00,09:05:00,09:05:55,15347,15497,19360.0,45,19365.0,17,19360.0,19365.0,19355.0,19365.0,72,16,19360,45,19365,34
2017-01-10 09:06:00,09:06:00,09:06:53,15509,15658,19360.0,50,19365.0,3,19365.0,19370.0,19365.0,19365.0,108,64,19365,22,19370,43
2017-01-10 09:07:00,09:07:00,09:07:53,15671,15822,19365.0,41,19370.0,23,19370.0,19370.0,19365.0,19365.0,154,-79,19365,7,19370,50
2017-01-10 09:08:00,09:08:01,09:08:42,15839,15925,19365.0,45,19370.0,45,19365.0,19365.0,19360.0,19360.0,57,-57,19360,29,19365,42
2017-01-10 09:09:00,09:09:04,09:09:58,15932,16033,19360.0,32,19365.0,41,19360.0,19365.0,19360.0,19360.0,37,21,19360,44,19365,27
2017-01-10 09:10:00,09:10:19,09:10:50,16052,16101,19360.0,45,19365.0,28,19365.0,19365.0,19360.0,19365.0,24,14,19365,16,19370,76
2017-01-10 09:11:00,09:11:35,09:11:47,16142,16156,19365.0,42,19370.0,79,19370.0,19370.0,19365.0,19370.0,4,0,19365,37,19370,94
2017-01-10 09:12:00,09:12:01,09:12:59,16165,16223,19365.0,38,19370.0,93,19365.0,19370.0,19365.0,19370.0,38,14,19365,41,19370,79
2017-01-10 09:13:00,09:13:03,09:13:41,16227,16257,19365.0,41,19370.0,78,19365.0,19370.0,19365.0,19365.0,8,-4,19365,51,19370,78
2017-01-10 09:14:00,09:14:01,09:14:52,16270,16380,19365.0,51,19370.0,80,19365.0,19370.0,19365.0,19370.0,123,45,19370,15,19375,66
2017-01-10 09:15:00,09:15:03,09:15:53,16396,16510,19370.0,27,19375.0,61,19370.0,19380.0,19370.0,19380.0,61,-1,19375,52,19380,53
2017-01-10 09:16:00,09:16:00,09:16:59,16516,16704,19375.0,53,19380.0,50,19380.0,19380.0,19375.0,19380.0,131,38,19375,64,19380,4
2017-01-10 09:17:00,09:17:00,09:17:44,16707,16767,19375.0,64,19380.0,4,19380.0,19380.0,19375.0,19375.0,12,0,19375,46,19380,31
2017-01-10 09:18:00,09:18:04,09:18:56,16792,16867,19375.0,47,19380.0,32,19375.0,19375.0,19375.0,19375.0,31,-25,19375,39,19380,39
2017-01-10 09:19:00,09:19:09,09:19:58,16886,16980,19375.0,29,19380.0,44,19375.0,19380.0,19375.0,19375.0,33,11,19375,29,19380,53
2017-01-10 09:20:00,09:20:14,09:20:57,16993,17144,19375.0,26,19380.0,57,19375.0,19375.0,19370.0,19370.0,149,-116,19370,42,19375,43
2017-01-10 09:21:00,09:21:03,09:21:48,17157,17244,19370.0,58,19375.0,40,19370.0,19380.0,19370.0,19375.0,35,11,19375,44,19380,45
2017-01-10 09:22:00,09:22:22,09:22:49,17280,17349,19375.0,24,19380.0,64,19375.0,19375.0,19365.0,19365.0,53,-47,19365,48,19370,40
2017-01-10 09:23:00,09:23:01,09:23:55,17363,17458,19365.0,47,19370.0,39,19365.0,19365.0,19365.0,19365.0,42,-42,19365,25,19370,49
2017-01-10 09:24:00,09:24:13,09:24:58,17474,17658,19365.0,45,19370.0,41,19370.0,19375.0,19365.0,19375.0,139,59,19370,47,19375,1
2017-01-10 09:25:00,09:25:02,09:25:51,17664,17814,19370.0,40,19375.0,17,19375.0,19385.0,19375.0,19385.0,150,34,19385,9,19390,42
2017-01-10 09:26:00,09:26:00,09:26:52,17826,17971,19385.0,9,19390.0,48,19390.0,19395.0,19385.0,19385.0,131,111,19385,90,19390,31
2017-01-10 09:27:00,09:27:00,09:27:56,17984,18147,19385.0,92,19390.0,34,19385.0,19390.0,19380.0,19385.0,181,-137,19385,6,19390,45
2017-01-10 09:28:00,09:28:04,09:28:54,18161,18228,19385.0,15,19390.0,47,19385.0,19385.0,19380.0,19380.0,41,5,19380,44,19385,25
2017-01-10 09:29:00,09:29:11,09:29:57,18244,18317,19380.0,47,19385.0,20,19380.0,19380.0,19375.0,19375.0,52,-52,19375,2,19380,47
2017-01-10 09:30:00,09:30:01,09:30:55,18319,18402,19375.0,2,19380.0,46,19375.0,19385.0,19375.0,19385.0,48,38,19385,24,19390,44
2017-01-10 09:31:00,09:31:01,09:31:56,18411,18631,19385.0,27,19390.0,43,19390.0,19395.0,19385.0,19385.0,177,23,19385,12,19390,55
2017-01-10 09:32:00,09:32:04,09:32:57,18643,18851,19385.0,18,19390.0,52,19385.0,19390.0,19385.0,19385.0,206,162,19385,48,19390,13
2017-01-10 09:33:00,09:33:01,09:33:58,18858,19012,19385.0,48,19390.0,20,19385.0,19390.0,19385.0,19385.0,94,4,19385,46,19390,42
2017-01-10 09:34:00,09:34:03,09:34:59,19018,19112,19385.0,47,19390.0,42,19385.0,19385.0,19385.0,19385.0,36,-36,19385,22,19390,73
2017-01-10 09:35:00,09:35:38,09:35:53,19138,19202,19385.0,57,19390.0,53,19390.0,19395.0,19385.0,19385.0,61,41,19385,45,19390,36
2017-01-10 09:36:00,09:36:07,09:36:54,19211,19288,19385.0,44,19390.0,42,19390.0,19390.0,19390.0,19390.0,75,63,19390,1,19395,97
2017-01-10 09:37:00,09:37:02,09:37:36,19293,19395,19390.0,3,19395.0,98,19390.0,19390.0,19390.0,19390.0,59,-5,19385,46,19390,7
2017-01-10 09:38:00,09:38:00,09:38:00,0,0,0.0,0,0.0,0,19390.0,19390.0,19390.0,19390.0,0,0,0,0,0,0
2017-01-10 09:39:00,09:39:18,09:39:59,19476,19544,19385.0,46,19390.0,39,19385.0,19390.0,19385.0,19390.0,30,-22,19390,52,19395,87
2017-01-10 09:40:00,09:40:00,09:40:01,19547,19600,19390.0,52,19395.0,87,19390.0,19390.0,19390.0,19390.0,59,-59,19385,53,19395,101
2017-01-10 09:41:00,09:41:01,09:41:24,19674,19715,19390.0,28,19395.0,98,19390.0,19390.0,19390.0,19390.0,12,-12,19390,49,19395,90
2017-01-10 09:42:00,09:42:12,09:42:56,19761,19826,19390.0,48,19395.0,96,19390.0,19395.0,19390.0,19390.0,13,-9,19390,52,19395,89
2017-01-10 09:43:00,09:43:06,09:43:57,19844,19924,19390.0,44,19395.0,88,19390.0,19395.0,19390.0,19390.0,13,-11,19390,51,19395,81
2017-01-10 09:44:00,09:44:02,09:44:43,19930,20204,19390.0,54,19395.0,79,19395.0,19405.0,19395.0,19405.0,302,-6,19405,35,19410,52
2017-01-10 09:45:00,09:45:08,09:45:53,20241,20381,19405.0,52,19410.0,53,19405.0,19415.0,19405.0,19415.0,125,-9,19410,69,19415,33
2017-01-10 09:46:00,09:46:03,09:46:54,20396,20565,19410.0,64,19415.0,69,19415.0,19420.0,19410.0,19420.0,139,-27,19415,37,19420,52
2017-01-10 09:47:00,09:47:00,09:47:59,20575,20848,19415.0,26,19420.0,56,19415.0,19420.0,19410.0,19420.0,192,13,19420,2,19425,74
2017-01-10 09:48:00,09:48:00,09:48:33,20849,21002,19415.0,46,19420.0,4,19420.0,19420.0,19410.0,19410.0,146,-11,19405,39,19410,40
2017-01-10 09:49:00,09:49:27,09:49:30,21055,21062,19405.0,42,19410.0,48,19410.0,19410.0,19410.0,19410.0,2,2,19405,43,19410,45
2017-01-10 09:50:00,09:50:04,09:50:50,21091,21161,19405.0,43,19410.0,51,19405.0,19405.0,19400.0,19400.0,27,-27,19400,54,19405,56
2017-01-10 09:51:00,09:51:23,09:51:49,21185,21336,19400.0,53,19405.0,62,19400.0,19405.0,19400.0,19405.0,169,107,19400,64,19405,16
2017-01-10 09:52:00,09:52:12,09:52:56,21346,21409,19400.0,64,19405.0,17,19405.0,19410.0,19405.0,19410.0,44,44,19410,46,19415,46
2017-01-10 09:53:00,09:53:01,09:53:20,21423,21474,19410.0,64,19415.0,33,19415.0,19415.0,19415.0,19415.0,42,16,19410,70,19415,7
2017-01-10 09:54:00,09:54:05,09:54:56,21526,21603,19410.0,65,19415.0,9,19415.0,19415.0,19415.0,19415.0,37,23,19410,67,19415,1
2017-01-10 09:55:00,09:55:20,09:55:56,21621,21721,19410.0,67,19415.0,13,19415.0,19425.0,19415.0,19425.0,80,46,19420,48,19425,46
2017-01-10 09:56:00,09:56:00,09:56:51,21732,21839,19420.0,67,19425.0,30,19425.0,19425.0,19420.0,19420.0,62,-14,19420,36,19425,63
2017-01-10 09:57:00,09:57:00,09:57:58,21857,21999,19420.0,93,19425.0,29,19425.0,19425.0,19420.0,19420.0,143,-63,19415,62,19420,6
2017-01-10 09:58:00,09:58:49,09:58:50,22042,22075,19415.0,53,19420.0,49,19420.0,19420.0,19420.0,19420.0,44,40,19415,65,19420,17
2017-01-10 09:59:00,09:59:10,09:59:59,22089,22215,19415.0,59,19420.0,47,19415.0,19415.0,19410.0,19415.0,77,-1,19410,100,19415,1
2017-01-10 10:00:00,10:00:14,10:00:34,22240,22307,19410.0,106,19415.0,10,19415.0,19425.0,19415.0,19425.0,34,12,19420,49,19425,58
2017-01-10 10:01:00,10:01:19,10:01:56,22353,22459,19420.0,58,19425.0,60,19425.0,19430.0,19420.0,19425.0,95,27,19420,60,19425,14
2017-01-10 10:02:00,10:02:03,10:02:04,22470,22492,19420.0,44,19425.0,61,19420.0,19420.0,19420.0,19420.0,32,-24,19415,38,19420,38
2017-01-10 10:03:00,10:03:02,10:03:50,22545,22688,19415.0,56,19420.0,49,19420.0,19425.0,19420.0,19425.0,87,41,19420,59,19425,16
2017-01-10 10:04:00,10:04:18,10:04:58,22722,22832,19420.0,68,19425.0,23,19425.0,19425.0,19420.0,19425.0,76,-4,19425,8,19430,64
2017-01-10 10:05:00,10:05:02,10:05:33,22841,22942,19425.0,7,19430.0,64,19425.0,19425.0,19425.0,19425.0,57,-32,19425,14,19430,67
2017-01-10 10:06:00,10:06:04,10:06:59,22978,23062,19425.0,33,19430.0,66,19430.0,19430.0,19430.0,19430.0,54,54,19430,66,19435,37
2017-01-10 10:07:00,10:07:00,10:07:16,23065,23187,19430.0,66,19435.0,37,19435.0,19435.0,19435.0,19435.0,111,10,19435,32,19440,87
2017-01-10 10:08:00,10:08:08,10:08:59,23254,23381,19435.0,70,19440.0,82,19435.0,19440.0,19435.0,19440.0,109,91,19435,143,19440,10
2017-01-10 10:09:00,10:09:00,10:09:00,0,0,0.0,0,0.0,0,19440.0,19440.0,19440.0,19440.0,0,0,0,0,0,0
2017-01-10 10:10:00,10:10:00,10:10:55,23404,23685,19435.0,134,19440.0,53,19440.0,19450.0,19440.0,19450.0,324,32,19445,44,19450,43
2017-01-10 10:11:00,10:11:00,10:11:51,23695,23807,19445.0,41,19450.0,81,19445.0,19450.0,19445.0,19450.0,106,74,19445,54,19450,78
2017-01-10 10:12:00,10:12:00,10:12:53,23813,23959,19445.0,35,19450.0,93,19450.0,19450.0,19440.0,19445.0,95,-33,19440,77,19445,10
2017-01-10 10:13:00,10:13:00,10:13:56,23965,24017,19440.0,77,19445.0,1,19445.0,19445.0,19445.0,19445.0,14,-8,19445,20,19450,100
2017-01-10 10:14:00,10:14:01,10:14:45,24023,24202,19445.0,13,19450.0,100,19445.0,19465.0,19445.0,19460.0,178,122,19460,23,19465,61
2017-01-10 10:15:00,10:15:02,10:15:47,24225,24553,19460.0,68,19465.0,21,19465.0,19480.0,19455.0,19460.0,397,155,19460,31,19465,53
2017-01-10 10:16:00,10:16:01,10:16:58,24573,24835,19460.0,46,19465.0,55,19460.0,19465.0,19450.0,19460.0,242,10,19455,59,19460,48
2017-01-10 10:17:00,10:17:02,10:17:59,24844,25067,19455.0,57,19460.0,68,19455.0,19455.0,19445.0,19450.0,260,-154,19445,22,19450,45
2017-01-10 10:18:00,10:18:01,10:18:47,25073,25328,19445.0,29,19450.0,42,19445.0,19455.0,19445.0,19455.0,212,-42,19455,15,19460,62
2017-01-10 10:19:00,10:19:01,10:19:59,25351,25610,19455.0,57,19460.0,55,19455.0,19455.0,19445.0,19450.0,303,-151,19450,6,19455,66
2017-01-10 10:20:00,10:20:01,10:20:59,25611,25802,19450.0,20,19455.0,69,19450.0,19455.0,19445.0,19445.0,127,-44,19445,22,19450,41
2017-01-10 10:21:00,10:21:00,10:21:18,25806,25921,19445.0,22,19450.0,42,19445.0,19455.0,19445.0,19455.0,100,80,19450,60,19455,46
2017-01-10 10:22:00,10:22:02,10:22:51,25940,26057,19450.0,71,19455.0,70,19450.0,19455.0,19450.0,19455.0,105,-9,19450,47,19455,16
2017-01-10 10:23:00,10:23:09,10:23:59,26078,26150,19450.0,64,19455.0,12,19455.0,19455.0,19455.0,19455.0,31,-11,19450,63,19455,12
2017-01-10 10:24:00,10:24:00,10:24:23,26153,26272,19450.0,63,19455.0,12,19455.0,19455.0,19450.0,19450.0,94,6,19445,62,19450,2
2017-01-10 10:25:00,10:25:01,10:25:55,26308,26471,19450.0,48,19455.0,67,19450.0,19450.0,19450.0,19450.0,138,-23,19445,41,19450,5
2017-01-10 10:26:00,10:26:14,10:26:15,26495,26513,19445.0,51,19450.0,53,19445.0,19445.0,19445.0,19445.0,35,-25,19440,63,19445,7
2017-01-10 10:27:00,10:27:25,10:27:58,26578,26623,19440.0,59,19445.0,63,19445.0,19445.0,19445.0,19445.0,25,25,19440,68,19445,69
2017-01-10 10:28:00,10:28:00,10:28:43,26629,26769,19440.0,68,19445.0,72,19440.0,19445.0,19435.0,19440.0,171,-39,19435,55,19440,11
2017-01-10 10:29:00,10:29:04,10:29:59,26805,26927,19435.0,32,19440.0,72,19435.0,19435.0,19435.0,19435.0,60,-10,19435,37,19435,33
2017-01-10 10:30:00,10:30:00,10:30:59,26929,27555,19430.0,74,19435.0,33,19435.0,19440.0,19385.0,19405.0,847,-609,19405,23,19410,37
2017-01-10 10:31:00,10:31:00,10:31:57,27560,27736,19405.0,24,19410.0,36,19405.0,19415.0,19405.0,19410.0,136,32,19410,52,19415,72
2017-01-10 10:32:00,10:32:01,10:32:58,27743,27881,19410.0,59,19415.0,69,19410.0,19420.0,19410.0,19415.0,78,-24,19415,5,19420,52
2017-01-10 10:33:00,10:33:08,10:33:59,27886,27949,19415.0,7,19420.0,54,19415.0,19415.0,19415.0,19415.0,26,-26,19415,13,19420,54
2017-01-10 10:34:00,10:34:00,10:34:50,27951,28126,19415.0,13,19420.0,55,19415.0,19415.0,19405.0,19405.0,147,-73,19405,10,19410,47
2017-01-10 10:35:00,10:35:02,10:35:57,28143,28327,19405.0,31,19410.0,48,19405.0,19405.0,19400.0,19405.0,94,-24,19400,63,19405,7
2017-01-10 10:36:00,10:36:01,10:36:45,28334,28468,19400.0,63,19405.0,7,19400.0,19405.0,19395.0,19395.0,106,-63,19390,49,19400,54
2017-01-10 10:37:00,10:37:00,10:37:51,28491,28802,19390.0,48,19395.0,29,19390.0,19405.0,19390.0,19400.0,289,-30,19395,34,19400,48
2017-01-10 10:38:00,10:38:19,10:38:39,28820,29128,19395.0,74,19400.0,42,19395.0,19395.0,19375.0,19375.0,387,-277,19375,14,19380,47
2017-01-10 10:39:00,10:39:01,10:39:58,29150,29345,19375.0,33,19380.0,52,19375.0,19380.0,19370.0,19375.0,105,23,19370,68,19375,9
2017-01-10 10:40:00,10:40:02,10:40:55,29354,29505,19370.0,70,19375.0,12,19375.0,19385.0,19375.0,19385.0,93,27,19380,49,19385,12
2017-01-10 10:41:00,10:41:09,10:41:56,29517,29607,19380.0,57,19385.0,11,19385.0,19385.0,19380.0,19385.0,72,-48,19380,29,19385,46
2017-01-10 10:42:00,10:42:40,10:42:54,29638,29669,19380.0,62,19385.0,5,19385.0,19385.0,19380.0,19380.0,12,0,19380,58,19385,36
2017-01-10 10:43:00,10:43:06,10:43:56,29679,29780,19380.0,58,19385.0,34,19385.0,19385.0,19375.0,19385.0,59,-1,19380,23,19385,59
2017-01-10 10:44:00,10:44:20,10:44:54,29807,29875,19380.0,57,19385.0,52,19385.0,19385.0,19380.0,19380.0,71,-15,19375,42,19380,28
2017-01-10 10:45:00,10:45:00,10:45:57,29889,30110,19375.0,36,19380.0,51,19375.0,19375.0,19365.0,19365.0,198,-24,19360,47,19365,3
2017-01-10 10:46:00,10:46:00,10:46:58,30116,30357,19360.0,55,19365.0,8,19360.0,19360.0,19355.0,19360.0,234,-56,19355,97,19360,11
2017-01-10 10:47:00,10:47:02,10:47:55,30368,30462,19355.0,89,19360.0,38,19355.0,19360.0,19355.0,19360.0,54,42,19355,103,19365,71
2017-01-10 10:48:00,10:48:06,10:48:59,30478,30658,19355.0,103,19360.0,4,19360.0,19365.0,19355.0,19360.0,230,-75,19360,50,19365,72
2017-01-10 10:49:00,10:49:00,10:49:50,30659,30721,19360.0,57,19365.0,71,19360.0,19360.0,19355.0,19355.0,68,-68,19355,95,19360,42
2017-01-10 10:50:00,10:50:00,10:50:46,30730,30896,19355.0,104,19360.0,39,19355.0,19360.0,19355.0,19360.0,142,-44,19355,70,19360,17
2017-01-10 10:51:00,10:51:13,10:51:51,30923,30976,19355.0,71,19360.0,35,19360.0,19360.0,19355.0,19355.0,44,-40,19355,55,19360,48
2017-01-10 10:52:00,10:52:07,10:52:38,30984,31090,19355.0,44,19360.0,51,19355.0,19355.0,19350.0,19355.0,116,-56,19355,15,19360,49
2017-01-10 10:53:00,10:53:11,10:53:51,31119,31210,19355.0,48,19360.0,30,19360.0,19360.0,19355.0,19360.0,58,54,19360,75,19365,60
2017-01-10 10:54:00,10:54:06,10:54:56,31220,31303,19360.0,75,19365.0,57,19360.0,19365.0,19360.0,19360.0,30,-4,19360,69,19365,47
2017-01-10 10:55:00,10:55:06,10:55:57,31308,31430,19360.0,69,19365.0,48,19360.0,19365.0,19355.0,19355.0,134,-123,19355,58,19365,67
2017-01-10 10:56:00,10:56:00,10:56:48,31435,31699,19360.0,1,19365.0,81,19365.0,19365.0,19355.0,19360.0,329,-131,19360,28,19365,47
2017-01-10 10:57:00,10:57:15,10:57:52,31729,31779,19360.0,48,19365.0,32,19360.0,19365.0,19360.0,19365.0,33,15,19360,49,19365,13
2017-01-10 10:58:00,10:58:06,10:58:56,31792,31887,19360.0,49,19365.0,20,19365.0,19370.0,19365.0,19370.0,68,52,19365,47,19370,42
2017-01-10 10:59:00,10:59:24,10:59:51,31897,31961,19365.0,48,19370.0,37,19370.0,19370.0,19365.0,19370.0,36,32,19365,59,19370,20
2017-01-10 11:00:00,11:00:03,11:00:55,31970,32087,19365.0,59,19370.0,49,19365.0,19365.0,19360.0,19360.0,80,-16,19360,47,19365,18
2017-01-10 11:01:00,11:01:00,11:01:52,32090,32229,19360.0,47,19365.0,18,19360.0,19365.0,19360.0,19360.0,125,-12,19360,38,19365,37
2017-01-10 11:02:00,11:02:01,11:02:57,32234,32306,19360.0,40,19365.0,38,19360.0,19360.0,19360.0,19360.0,38,-38,19360,38,19365,32
2017-01-10 11:03:00,11:03:02,11:03:59,32309,32399,19360.0,38,19365.0,32,19360.0,19365.0,19360.0,19360.0,47,-25,19360,46,19365,30
2017-01-10 11:04:00,11:04:04,11:04:59,32405,32492,19360.0,46,19365.0,40,19360.0,19360.0,19360.0,19360.0,53,-53,19360,31,19365,41
2017-01-10 11:05:00,11:05:00,11:05:50,32493,32753,19360.0,14,19365.0,42,19360.0,19360.0,19350.0,19355.0,266,-174,19350,54,19355,3
2017-01-10 11:06:00,11:06:15,11:06:53,32772,33076,19350.0,51,19355.0,28,19350.0,19350.0,19335.0,19340.0,404,-216,19340,33,19345,40
2017-01-10 11:07:00,11:07:02,11:07:54,33088,33175,19340.0,35,19345.0,56,19340.0,19345.0,19340.0,19345.0,53,13,19340,48,19345,11
2017-01-10 11:08:00,11:08:11,11:08:54,33196,33286,19340.0,38,19345.0,43,19345.0,19345.0,19340.0,19340.0,73,-69,19335,22,19340,34
2017-01-10 11:09:00,11:09:02,11:09:54,33290,33511,19335.0,45,19340.0,32,19335.0,19345.0,19335.0,19345.0,248,4,19340,50,19345,28
2017-01-10 11:10:00,11:10:06,11:10:51,33526,33545,19340.0,43,19345.0,52,19340.0,19340.0,19340.0,19340.0,3,-3,19340,48,19345,57
2017-01-10 11:11:00,11:11:00,11:11:55,33554,33713,19340.0,49,19345.0,57,19345.0,19350.0,19340.0,19350.0,176,16,19345,31,19350,46
2017-01-10 11:12:00,11:12:00,11:12:55,33722,33850,19345.0,50,19350.0,15,19350.0,19350.0,19345.0,19350.0,63,13,19345,34,19350,46
2017-01-10 11:13:00,11:13:01,11:13:54,33861,33950,19345.0,24,19350.0,48,19345.0,19345.0,19340.0,19340.0,55,-31,19340,58,19345,20
2017-01-10 11:14:00,11:14:10,11:14:37,33968,34054,19340.0,29,19345.0,48,19340.0,19345.0,19340.0,19345.0,74,8,19340,54,19345,28
2017-01-10 11:15:00,11:15:05,11:15:57,34079,34233,19340.0,56,19345.0,20,19345.0,19350.0,19340.0,19350.0,139,1,19345,56,19355,51
2017-01-10 11:16:00,11:16:00,11:16:55,34237,34391,19345.0,55,19350.0,2,19350.0,19355.0,19350.0,19355.0,152,84,19350,50,19355,32
2017-01-10 11:17:00,11:17:31,11:17:32,34404,34422,19350.0,53,19355.0,31,19355.0,19355.0,19355.0,19355.0,38,32,19355,19,19360,55
2017-01-10 11:18:00,11:18:00,11:18:00,34444,34444,19355.0,41,19360.0,49,19360.0,19360.0,19360.0,19360.0,1,1,19355,40,19360,47
2017-01-10 11:19:00,11:19:10,11:19:56,34492,34567,19355.0,47,19360.0,53,19355.0,19360.0,19355.0,19360.0,67,-11,19355,54,19360,20
2017-01-10 11:20:00,11:20:07,11:20:43,34573,34585,19355.0,40,19360.0,45,19355.0,19360.0,19355.0,19360.0,4,2,19355,36,19360,47
2017-01-10 11:21:00,11:21:10,11:21:10,34595,34595,19355.0,44,19360.0,42,19355.0,19355.0,19355.0,19355.0,1,-1,19355,45,19360,40
2017-01-10 11:22:00,11:22:14,11:22:53,34625,34689,19355.0,43,19360.0,53,19360.0,19360.0,19350.0,19350.0,53,-51,19350,46,19355,38
2017-01-10 11:23:00,11:23:20,11:23:51,34697,34830,19350.0,47,19355.0,19,19355.0,19355.0,19345.0,19345.0,152,-60,19340,62,19345,8
2017-01-10 11:24:00,11:24:00,11:24:58,34838,34913,19340.0,62,19345.0,8,19345.0,19345.0,19345.0,19345.0,52,10,19345,16,19350,59
2017-01-10 11:25:00,11:25:06,11:25:44,34919,34965,19345.0,14,19350.0,59,19345.0,19345.0,19345.0,19345.0,36,2,19345,3,19350,52
2017-01-10 11:26:00,11:26:26,11:26:55,34983,35077,19345.0,34,19350.0,52,19350.0,19350.0,19340.0,19345.0,98,6,19345,15,19350,51
2017-01-10 11:27:00,11:27:09,11:27:57,35087,35228,19345.0,31,19350.0,51,19350.0,19350.0,19345.0,19345.0,156,-80,19345,8,19350,46
2017-01-10 11:28:00,11:28:11,11:28:33,35237,35329,19345.0,10,19350.0,46,19350.0,19350.0,19345.0,19345.0,118,-32,19345,42,19350,33
2017-01-10 11:29:00,11:29:03,11:29:43,35356,35647,19345.0,27,19350.0,54,19345.0,19350.0,19335.0,19350.0,382,-152,19350,12,19355,55
2017-01-10 11:30:00,11:30:00,11:30:54,35657,36027,19350.0,48,19355.0,36,19355.0,19360.0,19340.0,19340.0,407,-181,19335,52,19340,26
2017-01-10 11:31:00,11:31:00,11:31:56,36039,36834,19335.0,57,19340.0,27,19340.0,19340.0,19295.0,19310.0,1276,-632,19310,44,19315,35
2017-01-10 11:32:00,11:32:00,11:32:53,36844,37124,19310.0,47,19315.0,24,19310.0,19315.0,19305.0,19310.0,268,-66,19305,60,19310,6
2017-01-10 11:33:00,11:33:00,11:33:59,37140,37399,19305.0,66,19310.0,11,19305.0,19315.0,19305.0,19315.0,259,121,19315,17,19320,91
2017-01-10 11:34:00,11:34:02,11:34:55,37407,37572,19315.0,37,19320.0,90,19315.0,19320.0,19305.0,19305.0,187,-89,19305,31,19310,39
2017-01-10 11:35:00,11:35:00,11:35:57,37584,37937,19305.0,60,19310.0,33,19310.0,19310.0,19290.0,19295.0,397,-121,19295,2,19300,65
2017-01-10 11:36:00,11:36:00,11:36:59,37945,38348,19295.0,17,19300.0,64,19295.0,19305.0,19290.0,19305.0,488,83,19305,6,19310,51
2017-01-10 11:37:00,11:37:00,11:37:55,38351,38764,19305.0,6,19310.0,51,19305.0,19315.0,19305.0,19310.0,444,115,19305,27,19310,60
2017-01-10 11:38:00,11:38:14,11:38:58,38800,38942,19305.0,39,19310.0,59,19310.0,19310.0,19305.0,19305.0,146,43,19305,4,19310,57
2017-01-10 11:39:00,11:39:00,11:39:59,38947,39106,19305.0,6,19310.0,57,19305.0,19310.0,19305.0,19305.0,132,26,19300,61,19305,1
2017-01-10 11:40:00,11:40:00,11:40:52,39109,39260,19300.0,61,19305.0,1,19305.0,19305.0,19305.0,19305.0,111,4,19305,7,19310,54
2017-01-10 11:41:00,11:41:00,11:41:39,39273,39341,19305.0,2,19310.0,57,19305.0,19310.0,19305.0,19310.0,43,39,19305,78,19310,13
2017-01-10 11:42:00,11:42:01,11:42:55,39369,39609,19305.0,66,19310.0,55,19305.0,19305.0,19300.0,19305.0,261,-135,19300,63,19305,20
2017-01-10 11:43:00,11:43:00,11:43:58,39617,39804,19300.0,60,19305.0,7,19305.0,19305.0,19300.0,19300.0,152,-7,19300,16,19305,59
2017-01-10 11:44:00,11:44:04,11:44:55,39819,40212,19300.0,52,19305.0,36,19305.0,19305.0,19280.0,19285.0,544,-154,19285,19,19290,52
2017-01-10 11:45:00,11:45:00,11:45:45,40220,40726,19285.0,19,19290.0,55,19285.0,19285.0,19260.0,19265.0,775,-249,19260,59,19265,14
2017-01-10 11:46:00,11:46:00,11:46:51,40754,41068,19260.0,59,19265.0,47,19260.0,19265.0,19255.0,19265.0,312,64,19260,51,19265,44
2017-01-10 11:47:00,11:47:02,11:47:55,41083,41281,19260.0,55,19265.0,52,19260.0,19275.0,19260.0,19270.0,231,119,19265,53,19270,53
2017-01-10 11:48:00,11:48:11,11:48:58,41295,41558,19265.0,42,19270.0,64,19265.0,19270.0,19260.0,19265.0,296,-60,19265,61,19270,45
2017-01-10 11:49:00,11:49:08,11:49:58,41571,41889,19265.0,66,19270.0,47,19270.0,19275.0,19255.0,19265.0,370,-30,19265,7,19270,58
2017-01-10 11:50:00,11:50:03,11:50:58,41905,42111,19265.0,23,19270.0,54,19265.0,19270.0,19260.0,19260.0,224,-20,19260,38,19265,55
2017-01-10 11:51:00,11:51:02,11:51:50,42120,42266,19260.0,45,19265.0,44,19265.0,19265.0,19260.0,19265.0,101,39,19265,23,19270,64
2017-01-10 11:52:00,11:52:08,11:52:59,42291,42770,19265.0,51,19270.0,59,19270.0,19285.0,19265.0,19275.0,639,101,19270,83,19275,8
2017-01-10 11:53:00,11:53:03,11:53:48,42784,42905,19275.0,29,19280.0,53,19275.0,19280.0,19275.0,19280.0,99,42,19275,33,19280,36
2017-01-10 11:54:00,11:54:11,11:54:58,42935,43186,19275.0,29,19280.0,65,19275.0,19275.0,19265.0,19265.0,352,-194,19260,55,19270,69
2017-01-10 11:55:00,11:55:00,11:55:59,43194,43394,19265.0,43,19270.0,55,19265.0,19265.0,19255.0,19255.0,135,-39,19255,64,19260,23
2017-01-10 11:56:00,11:56:09,11:56:59,43413,43634,19255.0,64,19260.0,46,19255.0,19255.0,19250.0,19250.0,292,-70,19250,58,19255,44
2017-01-10 11:57:00,11:57:00,11:57:59,43637,43823,19250.0,58,19255.0,44,19250.0,19255.0,19250.0,19255.0,203,93,19250,56,19255,22
2017-01-10 11:58:00,11:58:08,11:58:42,43837,44001,19250.0,54,19255.0,24,19250.0,19260.0,19250.0,19255.0,206,86,19250,65,19255,7
2017-01-10 11:59:00,11:59:18,11:59:59,44033,44347,19250.0,65,19255.0,41,19255.0,19255.0,19240.0,19250.0,386,-126,19245,45,19250,30
2017-01-10 12:00:00,12:00:00,12:00:36,44353,44616,19245.0,58,19250.0,29,19245.0,19260.0,19245.0,19260.0,361,187,19255,34,19260,55
2017-01-10 12:01:00,12:01:08,12:01:58,44638,44876,19255.0,39,19260.0,62,19255.0,19270.0,19255.0,19270.0,295,-23,19265,51,19270,34
2017-01-10 12:02:00,12:02:02,12:02:44,44886,45011,19265.0,53,19270.0,53,19270.0,19270.0,19260.0,19260.0,87,-1,19260,45,19265,47
2017-01-10 12:03:00,12:03:02,12:03:58,45028,45423,19260.0,59,19265.0,41,19260.0,19265.0,19255.0,19265.0,436,148,19260,55,19265,5
2017-01-10 12:04:00,12:04:05,12:04:56,45432,45553,19265.0,16,19270.0,82,19265.0,19270.0,19260.0,19260.0,76,-47,19255,42,19260,28
2017-01-10 12:05:00,12:05:07,12:05:55,45564,45642,19255.0,44,19260.0,49,19255.0,19255.0,19250.0,19250.0,44,-27,19250,57,19255,35
2017-01-10 12:06:00,12:06:01,12:06:58,45652,45852,19250.0,55,19255.0,33,19250.0,19255.0,19250.0,19255.0,184,86,19250,111,19255,27
2017-01-10 12:07:00,12:07:05,12:07:31,45871,45959,19250.0,134,19255.0,3,19255.0,19260.0,19255.0,19255.0,80,2,19255,39,19260,51
2017-01-10 12:08:00,12:08:07,12:08:56,45991,46140,19255.0,35,19260.0,54,19255.0,19265.0,19255.0,19265.0,119,53,19265,8,19270,49
2017-01-10 12:09:00,12:09:00,12:09:18,46147,46179,19265.0,1,19270.0,55,19265.0,19265.0,19265.0,19265.0,10,-8,19265,18,19270,52
2017-01-10 12:10:00,12:10:09,12:10:44,46237,46308,19265.0,64,19270.0,60,19265.0,19270.0,19265.0,19270.0,82,-20,19265,66,19270,14
2017-01-10 12:11:00,12:11:01,12:11:51,46328,46425,19265.0,76,19270.0,40,19270.0,19270.0,19265.0,19265.0,94,18,19265,6,19270,74
2017-01-10 12:12:00,12:12:01,12:12:52,46440,46548,19265.0,27,19270.0,88,19265.0,19270.0,19265.0,19270.0,129,95,19270,52,19275,35
2017-01-10 12:13:00,12:13:01,12:13:48,46574,46737,19270.0,36,19275.0,75,19270.0,19275.0,19270.0,19275.0,186,-72,19270,63,19275,11
2017-01-10 12:14:00,12:14:14,12:14:49,46762,46815,19270.0,55,19275.0,87,19270.0,19275.0,19270.0,19270.0,46,-10,19270,19,19275,92
2017-01-10 12:15:00,12:15:09,12:15:58,46830,46909,19270.0,43,19275.0,92,19275.0,19275.0,19270.0,19270.0,84,-80,19270,63,19275,77
2017-01-10 12:16:00,12:16:02,12:16:04,46915,46946,19270.0,63,19275.0,73,19270.0,19270.0,19270.0,19270.0,44,-44,19270,1,19275,101
2017-01-10 12:17:00,12:17:15,12:17:45,46980,47034,19270.0,86,19275.0,80,19270.0,19280.0,19270.0,19280.0,83,63,19275,28,19280,92
2017-01-10 12:18:00,12:18:07,12:18:57,47044,47224,19275.0,34,19280.0,92,19280.0,19285.0,19275.0,19275.0,264,42,19275,13,19280,90
2017-01-10 12:19:00,12:19:16,12:19:59,47240,47335,19275.0,67,19280.0,71,19280.0,19280.0,19275.0,19275.0,108,56,19270,48,19275,38
2017-01-10 12:20:00,12:20:10,12:20:48,47344,47539,19270.0,47,19275.0,36,19270.0,19270.0,19255.0,19255.0,171,-79,19250,70,19255,17
2017-01-10 12:21:00,12:21:11,12:21:54,47568,47766,19250.0,68,19255.0,40,19255.0,19260.0,19250.0,19250.0,231,-89,19250,22,19255,35
2017-01-10 12:22:00,12:22:05,12:22:56,47783,47988,19250.0,20,19255.0,50,19250.0,19250.0,19245.0,19245.0,162,32,19240,56,19245,17
2017-01-10 12:23:00,12:23:07,12:23:55,48006,48228,19240.0,55,19245.0,34,19245.0,19245.0,19240.0,19240.0,315,9,19240,59,19245,22
2017-01-10 12:24:00,12:24:01,12:24:59,48240,48463,19240.0,60,19245.0,31,19245.0,19250.0,19245.0,19245.0,222,77,19240,63,19250,49
2017-01-10 12:25:00,12:25:01,12:25:51,48466,48586,19240.0,63,19250.0,49,19245.0,19250.0,19240.0,19250.0,68,52,19245,71,19250,54
2017-01-10 12:26:00,12:26:01,12:26:23,48593,48700,19245.0,75,19250.0,55,19250.0,19260.0,19250.0,19260.0,84,44,19255,68,19260,8
2017-01-10 12:27:00,12:27:04,12:27:59,48746,48885,19255.0,51,19260.0,93,19255.0,19260.0,19255.0,19255.0,123,-106,19250,57,19255,27
2017-01-10 12:28:00,12:28:00,12:28:52,48888,48967,19250.0,57,19255.0,27,19255.0,19255.0,19255.0,19255.0,42,-26,19255,28,19260,87
2017-01-10 12:29:00,12:29:00,12:29:53,48979,49125,19255.0,30,19260.0,86,19260.0,19260.0,19250.0,19255.0,127,45,19255,41,19260,80
2017-01-10 12:30:00,12:30:03,12:30:49,49138,49292,19255.0,52,19260.0,86,19260.0,19270.0,19260.0,19265.0,145,-9,19265,7,19270,55
2017-01-10 12:31:00,12:31:15,12:31:35,49325,49394,19265.0,33,19270.0,44,19270.0,19270.0,19265.0,19265.0,46,2,19265,8,19270,58
2017-01-10 12:32:00,12:32:01,12:32:33,49421,49527,19265.0,39,19270.0,60,19270.0,19275.0,19265.0,19265.0,93,-5,19265,17,19270,48
2017-01-10 12:33:00,12:33:03,12:33:34,49560,49622,19265.0,44,19270.0,37,19270.0,19270.0,19265.0,19265.0,25,-7,19265,12,19270,52
2017-01-10 12:34:00,12:34:00,12:34:24,49650,49693,19265.0,43,19270.0,46,19270.0,19270.0,19265.0,19265.0,11,-5,19265,15,19270,55
2017-01-10 12:35:00,12:35:07,12:35:51,49724,49889,19265.0,27,19270.0,52,19270.0,19275.0,19265.0,19275.0,169,87,19275,31,19280,38
2017-01-10 12:36:00,12:36:04,12:36:53,49913,50014,19275.0,36,19280.0,56,19275.0,19280.0,19275.0,19275.0,64,-18,19275,9,19280,52
2017-01-10 12:37:00,12:37:05,12:37:53,50033,50223,19275.0,46,19280.0,46,19280.0,19280.0,19275.0,19275.0,192,96,19275,10,19280,55
2017-01-10 12:38:00,12:38:01,12:38:52,50231,50364,19275.0,33,19280.0,54,19280.0,19280.0,19270.0,19270.0,153,-7,19265,43,19270,30
2017-01-10 12:39:00,12:39:16,12:39:55,50391,50421,19265.0,33,19270.0,66,19265.0,19270.0,19265.0,19265.0,26,-24,19265,28,19265,27
2017-01-10 12:40:00,12:40:05,12:40:55,50427,50587,19265.0,23,19270.0,59,19265.0,19275.0,19265.0,19270.0,153,3,19265,64,19270,20
2017-01-10 12:41:00,12:41:45,12:41:51,50621,50652,19265.0,77,19270.0,46,19270.0,19275.0,19270.0,19275.0,47,33,19275,2,19280,49
2017-01-10 12:42:00,12:42:01,12:42:31,50668,50786,19275.0,52,19280.0,43,19280.0,19280.0,19275.0,19275.0,81,-33,19270,58,19280,40
2017-01-10 12:43:00,12:43:02,12:43:57,50812,50939,19270.0,54,19275.0,41,19275.0,19280.0,19275.0,19275.0,106,-40,19270,51,19275,11
2017-01-10 12:44:00,12:44:08,12:44:57,50947,51253,19270.0,53,19275.0,22,19275.0,19285.0,19275.0,19280.0,400,47,19275,46,19280,12
2017-01-10 12:45:00,12:45:03,12:45:58,51263,51428,19275.0,59,19280.0,51,19275.0,19280.0,19270.0,19270.0,133,-23,19265,96,19270,5
2017-01-10 12:46:00,12:46:25,12:46:58,51443,51531,19265.0,96,19270.0,11,19270.0,19270.0,19265.0,19265.0,104,-86,19260,41,19265,25
2017-01-10 12:47:00,12:47:06,12:47:58,51548,51694,19260.0,61,19265.0,25,19265.0,19265.0,19260.0,19260.0,138,-94,19255,56,19265,78
2017-01-10 12:48:00,12:48:25,12:48:52,51725,51775,19255.0,24,19260.0,84,19255.0,19255.0,19250.0,19255.0,59,25,19255,35,19260,45
2017-01-10 12:49:00,12:49:02,12:49:47,51792,51962,19255.0,29,19260.0,50,19260.0,19260.0,19250.0,19260.0,193,-13,19255,43,19260,24
2017-01-10 12:50:00,12:50:06,12:50:46,51986,52093,19255.0,20,19260.0,41,19260.0,19260.0,19255.0,19255.0,60,-24,19255,24,19260,43
2017-01-10 12:51:00,12:51:08,12:51:57,52113,52803,19255.0,26,19260.0,52,19260.0,19285.0,19245.0,19285.0,998,650,19285,10,19290,42
2017-01-10 12:52:00,12:52:04,12:52:58,52820,53032,19285.0,24,19290.0,43,19285.0,19295.0,19285.0,19295.0,163,43,19295,14,19295,5
2017-01-10 12:53:00,12:53:01,12:53:56,53037,53223,19295.0,19,19300.0,54,19295.0,19305.0,19290.0,19295.0,204,-40,19295,2,19300,57
2017-01-10 12:54:00,12:54:38,12:54:48,53253,53291,19295.0,16,19300.0,52,19295.0,19300.0,19295.0,19295.0,37,-33,19295,10,19300,53
2017-01-10 12:55:00,12:55:01,12:55:57,53306,53501,19295.0,33,19300.0,54,19300.0,19305.0,19300.0,19305.0,155,11,19305,22,19310,42
2017-01-10 12:56:00,12:56:11,12:56:45,53511,53622,19305.0,28,19310.0,41,19310.0,19310.0,19305.0,19305.0,123,81,19300,45,19305,39
2017-01-10 12:57:00,12:57:20,12:57:59,53642,53713,19300.0,56,19305.0,45,19305.0,19310.0,19305.0,19310.0,102,102,19305,37,19310,18
2017-01-10 12:58:00,12:58:00,12:58:53,53716,53760,19305.0,37,19310.0,18,19310.0,19310.0,19310.0,19310.0,5,5,19305,47,19310,28
2017-01-10 12:59:00,12:59:08,12:59:54,53767,53876,19305.0,52,19310.0,48,19310.0,19315.0,19310.0,19310.0,96,-8,19305,25,19310,21
2017-01-10 13:00:00,13:00:00,13:00:57,53886,54020,19305.0,25,19310.0,33,19305.0,19310.0,19305.0,19310.0,97,1,19305,32,19310,37
2017-01-10 13:01:00,13:01:01,13:01:58,54027,54104,19305.0,33,19310.0,33,19305.0,19305.0,19305.0,19305.0,40,-40,19300,36,19305,50
2017-01-10 13:02:00,13:02:09,13:02:54,54129,54259,19300.0,56,19305.0,45,19305.0,19310.0,19305.0,19310.0,137,-63,19305,44,19310,39
2017-01-10 13:03:00,13:03:04,13:03:56,54272,54538,19305.0,62,19310.0,23,19310.0,19315.0,19305.0,19310.0,286,-30,19310,31,19315,42
2017-01-10 13:04:00,13:04:04,13:04:45,54548,54655,19310.0,46,19315.0,34,19315.0,19320.0,19315.0,19320.0,75,-25,19315,32,19320,41
2017-01-10 13:05:00,13:05:01,13:05:54,54677,54893,19315.0,47,19320.0,33,19320.0,19320.0,19310.0,19310.0,224,-12,19310,1,19315,54
2017-01-10 13:06:00,13:06:09,13:06:46,54910,55000,19310.0,22,19315.0,51,19310.0,19320.0,19310.0,19320.0,39,-10,19315,27,19320,55
2017-01-10 13:07:00,13:07:04,13:07:57,55020,55173,19315.0,44,19320.0,44,19320.0,19320.0,19305.0,19310.0,97,-9,19305,60,19310,27
2017-01-10 13:08:00,13:08:04,13:08:35,55181,55254,19305.0,62,19310.0,33,19310.0,19310.0,19305.0,19310.0,54,-18,19305,36,19310,46
2017-01-10 13:09:00,13:09:00,13:09:51,55281,55331,19305.0,38,19310.0,49,19305.0,19310.0,19305.0,19310.0,18,12,19310,31,19315,55
2017-01-10 13:10:00,13:10:15,13:10:56,55345,55511,19310.0,55,19315.0,50,19315.0,19315.0,19305.0,19305.0,214,-74,19305,1,19310,67
2017-01-10 13:11:00,13:11:00,13:11:54,55519,55608,19305.0,11,19310.0,67,19305.0,19305.0,19295.0,19300.0,67,-65,19295,46,19300,72
2017-01-10 13:12:00,13:12:07,13:12:59,55622,55741,19295.0,49,19300.0,90,19300.0,19305.0,19295.0,19305.0,140,50,19300,42,19305,48
2017-01-10 13:13:00,13:13:12,13:13:52,55749,55860,19300.0,50,19305.0,50,19305.0,19310.0,19305.0,19310.0,89,65,19305,40,19310,41
2017-01-10 13:14:00,13:14:05,13:14:48,55873,55968,19305.0,41,19310.0,41,19310.0,19310.0,19300.0,19300.0,66,-28,19295,48,19300,35
2017-01-10 13:15:00,13:15:16,13:15:49,56004,56102,19295.0,58,19300.0,48,19300.0,19300.0,19300.0,19300.0,73,17,19295,68,19300,14
2017-01-10 13:16:00,13:16:07,13:16:58,56121,56180,19295.0,56,19300.0,21,19300.0,19300.0,19295.0,19300.0,17,3,19295,40,19300,41
2017-01-10 13:17:00,13:17:08,13:17:59,56182,56267,19295.0,40,19300.0,42,19300.0,19300.0,19295.0,19295.0,48,-14,19290,64,19295,17
2017-01-10 13:18:00,13:18:03,13:18:49,56276,56447,19290.0,66,19295.0,28,19290.0,19295.0,19285.0,19290.0,173,-43,19285,47,19290,44
2017-01-10 13:19:00,13:19:02,13:19:58,56452,56553,19285.0,48,19290.0,48,19290.0,19295.0,19290.0,19290.0,61,27,19285,44,19290,21
2017-01-10 13:20:00,13:20:18,13:20:54,56570,56663,19285.0,43,19290.0,42,19290.0,19290.0,19285.0,19290.0,78,2,19285,44,19290,15
2017-01-10 13:21:00,13:21:00,13:21:59,56674,56797,19285.0,45,19290.0,25,19290.0,19295.0,19290.0,19295.0,105,-65,19285,37,19290,37
2017-01-10 13:22:00,13:22:01,13:22:50,56798,56864,19290.0,11,19295.0,54,19290.0,19295.0,19290.0,19295.0,35,3,19290,43,19295,51
2017-01-10 13:23:00,13:23:09,13:23:59,56877,56971,19290.0,38,19295.0,51,19295.0,19300.0,19295.0,19295.0,68,-17,19290,29,19300,104
2017-01-10 13:24:00,13:24:10,13:24:58,56984,57054,19290.0,43,19295.0,35,19295.0,19295.0,19290.0,19290.0,18,4,19285,64,19290,30
2017-01-10 13:25:00,13:25:09,13:25:49,57068,57146,19285.0,65,19290.0,10,19290.0,19300.0,19290.0,19295.0,63,-1,19290,69,19295,9
2017-01-10 13:26:00,13:26:00,13:26:50,57162,57238,19290.0,72,19295.0,6,19295.0,19295.0,19295.0,19295.0,41,-17,19290,64,19295,39
2017-01-10 13:27:00,13:27:00,13:27:56,57248,57370,19290.0,67,19295.0,32,19295.0,19295.0,19290.0,19290.0,93,-41,19285,43,19290,38
2017-01-10 13:28:00,13:28:04,13:28:58,57382,57561,19285.0,45,19290.0,46,19285.0,19285.0,19275.0,19275.0,175,-125,19275,50,19280,27
2017-01-10 13:29:00,13:29:02,13:29:58,57569,57669,19275.0,51,19280.0,22,19280.0,19285.0,19280.0,19285.0,55,9,19280,49,19285,57
2017-01-10 13:30:00,13:30:02,13:30:56,57677,57835,19280.0,50,19285.0,60,19280.0,19295.0,19280.0,19295.0,210,68,19295,1,19300,98
2017-01-10 13:31:00,13:31:04,13:31:59,57842,58068,19295.0,16,19300.0,101,19300.0,19310.0,19295.0,19310.0,264,208,19310,8,19315,96
2017-01-10 13:32:00,13:32:12,13:32:59,58080,58253,19310.0,18,19315.0,96,19310.0,19315.0,19305.0,19310.0,209,23,19310,20,19315,82
2017-01-10 13:33:00,13:33:05,13:33:53,58257,58320,19310.0,21,19315.0,82,19310.0,19315.0,19310.0,19310.0,41,-31,19310,7,19315,89
2017-01-10 13:34:00,13:34:04,13:34:54,58337,58462,19310.0,2,19315.0,85,19310.0,19310.0,19305.0,19305.0,101,12,19300,51,19305,9
2017-01-10 13:35:00,13:35:00,13:35:57,58468,58556,19300.0,51,19305.0,8,19305.0,19315.0,19305.0,19315.0,38,38,19310,43,19315,62
2017-01-10 13:36:00,13:36:07,13:36:57,58563,58699,19310.0,46,19315.0,64,19315.0,19320.0,19310.0,19315.0,107,47,19310,33,19315,37
2017-01-10 13:37:00,13:37:17,13:37:54,58723,58802,19310.0,32,19315.0,54,19315.0,19315.0,19315.0,19315.0,47,3,19310,54,19315,3
2017-01-10 13:38:00,13:38:23,13:38:44,58841,58948,19310.0,66,19315.0,6,19315.0,19320.0,19315.0,19315.0,108,-26,19310,46,19315,4
2017-01-10 13:39:00,13:39:08,13:39:58,58985,59106,19310.0,49,19315.0,22,19315.0,19320.0,19315.0,19320.0,101,87,19320,9,19325,70
2017-01-10 13:40:00,13:40:10,13:40:57,59129,59196,19320.0,51,19325.0,54,19320.0,19325.0,19320.0,19325.0,63,59,19320,54,19325,45
2017-01-10 13:41:00,13:41:06,13:41:59,59204,59363,19320.0,61,19325.0,43,19325.0,19330.0,19320.0,19330.0,150,142,19325,48,19330,52
2017-01-10 13:42:00,13:42:02,13:42:57,59367,59432,19325.0,49,19330.0,52,19330.0,19330.0,19325.0,19330.0,20,8,19325,49,19330,39
2017-01-10 13:43:00,13:43:00,13:43:59,59438,59724,19325.0,56,19330.0,39,19330.0,19330.0,19325.0,19325.0,370,-158,19320,48,19325,32
2017-01-10 13:44:00,13:44:00,13:44:50,59725,59930,19320.0,46,19325.0,38,19325.0,19325.0,19315.0,19315.0,184,-8,19315,15,19320,44
2017-01-10 13:45:00,13:45:00,13:45:57,59945,60069,19315.0,49,19320.0,53,19320.0,19320.0,19315.0,19320.0,84,28,19315,45,19320,59
2017-01-10 13:46:00,13:46:03,13:46:57,60077,60255,19315.0,42,19320.0,60,19320.0,19330.0,19315.0,19325.0,146,83,19320,43,19325,43
2017-01-10 13:47:00,13:47:00,13:47:57,60261,60394,19320.0,45,19325.0,44,19325.0,19330.0,19320.0,19330.0,92,50,19325,67,19330,48
2017-01-10 13:48:00,13:48:00,13:48:59,60402,60526,19325.0,65,19330.0,47,19330.0,19330.0,19325.0,19325.0,50,-16,19325,36,19330,61
2017-01-10 13:49:00,13:49:02,13:49:57,60532,60615,19325.0,43,19330.0,55,19325.0,19330.0,19325.0,19330.0,23,13,19325,67,19330,90
2017-01-10 13:50:00,13:50:03,13:50:43,60622,60781,19325.0,67,19330.0,92,19325.0,19330.0,19320.0,19325.0,193,-177,19320,49,19325,83
2017-01-10 13:51:00,13:51:04,13:51:57,60810,60945,19320.0,37,19325.0,114,19320.0,19320.0,19315.0,19320.0,114,-110,19315,70,19320,56
2017-01-10 13:52:00,13:52:01,13:52:59,60955,61037,19315.0,67,19320.0,97,19315.0,19320.0,19315.0,19320.0,39,35,19315,99,19320,95
2017-01-10 13:53:00,13:53:00,13:53:44,61040,61267,19315.0,99,19320.0,95,19320.0,19330.0,19315.0,19315.0,333,27,19315,30,19320,110
2017-01-10 13:54:00,13:54:02,13:54:55,61295,61475,19315.0,62,19320.0,66,19320.0,19320.0,19305.0,19305.0,196,-180,19305,54,19310,38
2017-01-10 13:55:00,13:55:00,13:55:56,61485,61855,19305.0,54,19310.0,46,19310.0,19315.0,19295.0,19300.0,443,-21,19300,54,19305,85
2017-01-10 13:56:00,13:56:00,13:56:59,61862,62022,19300.0,54,19305.0,76,19305.0,19310.0,19300.0,19305.0,156,54,19300,91,19305,2
2017-01-10 13:57:00,13:57:00,13:57:57,62027,62380,19300.0,89,19305.0,6,19305.0,19310.0,19300.0,19305.0,409,-85,19300,41,19305,50
2017-01-10 13:58:00,13:58:00,13:58:59,62390,62555,19300.0,54,19305.0,60,19305.0,19310.0,19300.0,19300.0,124,38,19300,30,19305,117
2017-01-10 13:59:00,13:59:00,13:59:59,62558,63194,19300.0,30,19305.0,117,19305.0,19305.0,19290.0,19295.0,924,-138,19290,54,19295,57
2017-01-10 14:00:00,14:00:00,14:00:59,63195,64047,19290.0,133,19295.0,2,19295.0,19300.0,19270.0,19270.0,1515,43,19270,79,19275,109
2017-01-10 14:01:00,14:01:00,14:01:58,64052,64293,19270.0,91,19275.0,117,19275.0,19280.0,19270.0,19280.0,297,155,19275,167,19280,168
2017-01-10 14:02:00,14:02:00,14:02:59,64299,64528,19275.0,156,19280.0,170,19280.0,19285.0,19275.0,19285.0,243,127,19280,131,19285,150
2017-01-10 14:03:00,14:03:00,14:03:58,64530,64769,19280.0,128,19285.0,150,19285.0,19285.0,19275.0,19275.0,341,-135,19270,162,19275,43
2017-01-10 14:04:00,14:04:00,14:04:59,64772,64980,19270.0,158,19275.0,38,19275.0,19280.0,19275.0,19280.0,161,25,19275,127,19280,96
2017-01-10 14:05:00,14:05:02,14:05:59,64988,65216,19275.0,128,19280.0,96,19280.0,19285.0,19275.0,19285.0,232,58,19280,64,19285,168
2017-01-10 14:06:00,14:06:01,14:06:55,65220,65465,19280.0,65,19285.0,168,19285.0,19285.0,19280.0,19280.0,362,102,19275,124,19280,23
2017-01-10 14:07:00,14:07:00,14:07:54,65471,65696,19275.0,124,19280.0,22,19280.0,19290.0,19280.0,19285.0,333,219,19285,51,19290,145
2017-01-10 14:08:00,14:08:01,14:08:59,65707,66019,19285.0,50,19290.0,140,19290.0,19300.0,19285.0,19295.0,656,420,19295,22,19300,85
2017-01-10 14:09:00,14:09:00,14:09:59,66020,66281,19290.0,119,19295.0,2,19295.0,19305.0,19290.0,19300.0,491,241,19300,21,19305,52
