,ST,ET,sidx,eidx,bB,bBS,bA,bAS,O,H,L,C,V,OF,eB,eBS,eA,eAS
2017-01-16 08:00:00,08:00:00,08:00:58,2248,2672,19205.0,34,19210.0,38,19205.0,19215.0,19200.0,19205.0,462,-6,19205,16,19210,45
2017-01-16 08:01:00,08:01:11,08:01:58,2702,2857,19205.0,44,19210.0,38,19210.0,19215.0,19210.0,19210.0,145,27,19210,10,19215,39
2017-01-16 08:02:00,08:02:00,08:02:49,2863,2967,19210.0,14,19215.0,39,19210.0,19215.0,19210.0,19215.0,102,82,19210,37,19215,18
2017-01-16 08:03:00,08:03:02,08:03:54,2989,3063,19210.0,46,19215.0,27,19215.0,19220.0,19215.0,19220.0,40,39,19215,36,19220,55
2017-01-16 08:04:00,08:04:01,08:04:55,3070,3292,19215.0,35,19220.0,55,19220.0,19220.0,19205.0,19205.0,265,-237,19205,28,19210,42
2017-01-16 08:05:00,08:05:03,08:05:54,3299,3458,19205.0,32,19210.0,43,19205.0,19205.0,19195.0,19205.0,141,-77,19200,35,19205,31
2017-01-16 08:06:00,08:06:00,08:06:49,3468,3634,19200.0,29,19205.0,35,19205.0,19205.0,19190.0,19195.0,140,-76,19195,23,19200,56
2017-01-16 08:07:00,08:07:02,08:07:58,3658,3841,19195.0,42,19200.0,44,19200.0,19205.0,19200.0,19205.0,166,22,19200,13,19205,53
2017-01-16 08:08:00,08:08:06,08:08:57,3852,4011,19200.0,33,19205.0,57,19205.0,19205.0,19195.0,19200.0,140,-106,19195,25,19200,31
2017-01-16 08:09:00,08:09:04,08:09:58,4019,4146,19195.0,24,19200.0,43,19200.0,19200.0,19195.0,19200.0,79,-21,19195,33,19200,45
2017-01-16 08:10:00,08:10:04,08:10:59,4155,4350,19195.0,37,19200.0,40,19195.0,19200.0,19190.0,19195.0,158,41,19195,22,19195,4
2017-01-16 08:11:00,08:11:00,08:11:53,4352,4582,19190.0,46,19195.0,4,19195.0,19200.0,19195.0,19195.0,239,-9,19190,50,19195,30
2017-01-16 08:12:00,08:12:05,08:12:58,4592,4715,19190.0,54,19195.0,32,19195.0,19195.0,19185.0,19185.0,67,-35,19185,30,19190,38
2017-01-16 08:13:00,08:13:01,08:13:58,4724,5362,19185.0,43,19190.0,30,19190.0,19225.0,19190.0,19225.0,1074,606,19220,43,19225,6
2017-01-16 08:14:00,08:14:00,08:14:49,5368,5616,19220.0,39,19225.0,37,19225.0,19235.0,19225.0,19235.0,278,146,19230,43,19240,58
2017-01-16 08:15:00,08:15:06,08:15:59,5640,5806,19230.0,39,19235.0,58,19235.0,19235.0,19230.0,19235.0,159,-65,19235,21,19240,61
2017-01-16 08:16:00,08:16:03,08:16:53,5816,5994,19235.0,23,19240.0,60,19235.0,19235.0,19225.0,19225.0,161,-133,19225,18,19230,58
2017-01-16 08:17:00,08:17:02,08:17:57,6012,6168,19225.0,20,19230.0,61,19225.0,19235.0,19225.0,19235.0,112,26,19235,4,19240,67
2017-01-16 08:18:00,08:18:26,08:18:48,6187,6247,19235.0,21,19240.0,75,19235.0,19235.0,19225.0,19225.0,49,-49,19225,32,19230,55
2017-01-16 08:19:00,08:19:23,08:19:49,6285,6329,19225.0,45,19230.0,39,19225.0,19230.0,19225.0,19230.0,11,7,19225,57,19230,25
2017-01-16 08:20:00,08:20:13,08:20:55,6359,6542,19225.0,37,19230.0,59,19230.0,19230.0,19215.0,19215.0,217,24,19215,18,19220,55
2017-01-16 08:21:00,08:21:14,08:21:47,6553,6648,19215.0,43,19220.0,54,19220.0,19225.0,19220.0,19220.0,97,-41,19215,53,19225,49
2017-01-16 08:22:00,08:22:12,08:22:52,6681,6766,19215.0,53,19220.0,24,19220.0,19225.0,19220.0,19225.0,83,-15,19220,48,19225,18
2017-01-16 08:23:00,08:23:01,08:23:59,6780,7069,19220.0,48,19225.0,41,19225.0,19225.0,19200.0,19200.0,541,-489,19200,22,19205,43
2017-01-16 08:24:00,08:24:00,08:24:57,7070,7313,19200.0,23,19205.0,45,19200.0,19205.0,19200.0,19200.0,283,-27,19195,79,19200,24
2017-01-16 08:25:00,08:25:03,08:25:51,7327,7512,19195.0,77,19200.0,11,19200.0,19205.0,19195.0,19205.0,181,105,19205,8,19210,55
2017-01-16 08:26:00,08:26:11,08:26:48,7540,7687,19205.0,14,19210.0,64,19205.0,19210.0,19205.0,19205.0,195,89,19200,46,19205,29
2017-01-16 08:27:00,08:27:07,08:27:53,7708,7865,19200.0,41,19205.0,43,19200.0,19205.0,19200.0,19200.0,107,-37,19195,65,19200,6
2017-01-16 08:28:00,08:28:00,08:28:53,7874,7923,19195.0,70,19200.0,6,19200.0,19205.0,19195.0,19205.0,18,16,19200,22,19205,20
2017-01-16 08:29:00,08:29:01,08:29:38,7928,7985,19200.0,22,19205.0,51,19200.0,19200.0,19195.0,19195.0,33,-33,19195,85,19200,25
2017-01-16 08:30:00,08:30:04,08:30:46,7999,8082,19195.0,76,19200.0,42,19195.0,19195.0,19190.0,19195.0,74,-58,19190,68,19195,50
2017-01-16 08:31:00,08:31:01,08:31:59,8089,8439,19190.0,67,19195.0,51,19190.0,19200.0,19185.0,19190.0,506,-158,19190,41,19195,41
2017-01-16 08:32:00,08:32:00,08:32:59,8442,8823,19190.0,41,19195.0,41,19195.0,19195.0,19170.0,19175.0,497,-149,19175,53,19180,24
2017-01-16 08:33:00,08:33:06,08:33:46,8840,8962,19175.0,45,19180.0,59,19180.0,19180.0,19175.0,19180.0,121,41,19175,53,19180,17
2017-01-16 08:34:00,08:34:00,08:34:57,8984,9107,19175.0,50,19180.0,39,19175.0,19180.0,19175.0,19180.0,89,3,19180,10,19180,28
2017-01-16 08:35:00,08:35:06,08:35:59,9115,9258,19175.0,48,19180.0,20,19180.0,19185.0,19180.0,19180.0,167,116,19180,42,19185,28
2017-01-16 08:36:00,08:36:06,08:36:42,9270,9337,19180.0,54,19185.0,17,19185.0,19185.0,19185.0,19185.0,19,-3,19185,40,19190,42
2017-01-16 08:37:00,08:37:00,08:37:40,9356,9432,19185.0,42,19190.0,53,19190.0,19190.0,19185.0,19185.0,69,-6,19185,12,19190,47
2017-01-16 08:38:00,08:38:14,08:38:46,9450,9555,19185.0,45,19190.0,43,19190.0,19190.0,19185.0,19190.0,87,-5,19185,48,19190,14
2017-01-16 08:39:00,08:39:14,08:39:49,9574,9618,19185.0,35,19190.0,37,19190.0,19190.0,19180.0,19180.0,28,-26,19180,51,19185,29
2017-01-16 08:40:00,08:40:01,08:40:59,9627,9769,19180.0,55,19185.0,20,19185.0,19190.0,19185.0,19190.0,132,116,19185,54,19195,59
2017-01-16 08:41:00,08:41:00,08:41:52,9772,9840,19185.0,54,19195.0,59,19195.0,19195.0,19190.0,19195.0,42,-29,19190,47,19195,56
2017-01-16 08:42:00,08:42:00,08:42:56,9845,9958,19190.0,44,19195.0,58,19195.0,19195.0,19190.0,19195.0,103,-1,19190,45,19195,22
2017-01-16 08:43:00,08:43:16,08:43:36,9980,10060,19190.0,44,19195.0,34,19195.0,19195.0,19180.0,19185.0,98,-26,19180,50,19190,93
2017-01-16 08:44:00,08:44:02,08:44:58,10080,10127,19180.0,55,19185.0,66,19185.0,19190.0,19185.0,19190.0,89,87,19185,79,19190,58
2017-01-16 08:45:00,08:45:07,08:45:32,10137,10159,19185.0,77,19190.0,62,19190.0,19190.0,19185.0,19185.0,17,7,19185,67,19190,77
2017-01-16 08:46:00,08:46:04,08:46:56,10169,10346,19185.0,60,19190.0,80,19185.0,19185.0,19175.0,19175.0,170,-100,19175,73,19180,32
2017-01-16 08:47:00,08:47:23,08:47:44,10364,10442,19175.0,87,19180.0,49,19175.0,19180.0,19175.0,19180.0,143,1,19175,53,19180,23
2017-01-16 08:48:00,08:48:27,08:48:59,10494,10567,19175.0,52,19180.0,19,19180.0,19190.0,19180.0,19185.0,96,14,19185,20,19190,63
2017-01-16 08:49:00,08:49:56,08:49:56,10613,10613,19185.0,57,19190.0,61,19185.0,19185.0,19185.0,19185.0,1,-1,19185,55,19190,63
2017-01-16 08:50:00,08:50:14,08:50:34,10624,10796,19185.0,57,19190.0,76,19190.0,19190.0,19180.0,19185.0,228,-58,19180,62,19190,48
2017-01-16 08:51:00,08:51:24,08:51:39,10827,10850,19185.0,37,19190.0,40,19190.0,19190.0,19185.0,19185.0,14,-10,19185,15,19190,50
2017-01-16 08:52:00,08:52:05,08:52:56,10875,11017,19185.0,55,19190.0,36,19190.0,19190.0,19180.0,19180.0,141,-43,19180,42,19185,31
2017-01-16 08:53:00,08:53:02,08:53:59,11029,11167,19180.0,42,19185.0,35,19180.0,19180.0,19175.0,19180.0,129,38,19180,6,19185,39
2017-01-16 08:54:00,08:54:14,08:54:34,11186,11219,19180.0,41,19185.0,18,19185.0,19185.0,19185.0,19185.0,14,-12,19180,59,19190,43
2017-01-16 08:55:00,08:55:01,08:55:52,11240,11365,19185.0,7,19190.0,44,19185.0,19195.0,19185.0,19195.0,134,88,19190,48,19195,21
2017-01-16 08:56:00,08:56:40,08:56:48,11419,11449,19190.0,55,19195.0,39,19190.0,19190.0,19190.0,19190.0,27,-27,19190,22,19195,48
2017-01-16 08:57:00,08:57:09,08:57:20,11459,11515,19190.0,24,19195.0,50,19190.0,19190.0,19190.0,19190.0,89,45,19190,37,19195,45
2017-01-16 08:58:00,08:58:02,08:58:57,11538,11619,19190.0,47,19195.0,57,19195.0,19195.0,19190.0,19190.0,64,-24,19185,42,19190,33
2017-01-16 08:59:00,08:59:00,08:59:58,11625,11672,19185.0,36,19190.0,35,19185.0,19185.0,19185.0,19185.0,11,-11,19190,13,19190,42
2017-01-16 09:00:00,09:00:00,09:00:57,11675,11813,19185.0,47,19190.0,41,19190.0,19195.0,19190.0,19190.0,118,50,19185,23,19190,38
2017-01-16 09:01:00,09:01:01,09:01:56,11821,12354,19185.0,47,19190.0,17,19190.0,19190.0,19165.0,19170.0,845,-361,19165,62,19175,118
2017-01-16 09:02:00,09:02:00,09:02:59,12363,12551,19170.0,10,19175.0,117,19170.0,19175.0,19165.0,19170.0,264,138,19170,56,19175,47
2017-01-16 09:03:00,09:03:00,09:03:28,12552,12610,19170.0,64,19175.0,38,19175.0,19175.0,19170.0,19170.0,38,8,19165,67,19170,2
2017-01-16 09:04:00,09:04:09,09:04:56,12652,12739,19170.0,46,19175.0,40,19175.0,19175.0,19165.0,19165.0,86,-32,19160,66,19165,43
2017-01-16 09:05:00,09:05:02,09:05:36,12752,12869,19160.0,53,19165.0,58,19160.0,19160.0,19155.0,19155.0,107,-43,19155,49,19160,69
2017-01-16 09:06:00,09:06:02,09:06:42,12902,13269,19155.0,53,19160.0,73,19155.0,19160.0,19140.0,19150.0,554,-180,19145,53,19150,30
2017-01-16 09:07:00,09:07:06,09:07:56,13290,13439,19145.0,54,19150.0,43,19150.0,19150.0,19140.0,19145.0,87,-47,19145,52,19150,77
2017-01-16 09:08:00,09:08:01,09:08:49,13448,13555,19145.0,56,19150.0,78,19145.0,19150.0,19145.0,19150.0,90,16,19145,58,19150,94
2017-01-16 09:09:00,09:09:13,09:09:47,13573,13660,19145.0,63,19150.0,79,19145.0,19150.0,19145.0,19145.0,86,-58,19140,59,19145,13
2017-01-16 09:10:00,09:10:30,09:10:30,13718,13718,19140.0,39,19145.0,49,19140.0,19140.0,19140.0,19140.0,1,-1,19140,38,19145,50
2017-01-16 09:11:00,09:11:15,09:11:59,13770,14031,19140.0,53,19145.0,47,19145.0,19145.0,19140.0,19145.0,340,-140,19140,49,19145,47
2017-01-16 09:12:00,09:12:10,09:12:50,14051,14084,19140.0,45,19145.0,45,19145.0,19145.0,19145.0,19145.0,5,5,19140,33,19145,43
2017-01-16 09:13:00,09:13:09,09:13:59,14103,14262,19140.0,42,19145.0,39,19145.0,19145.0,19145.0,19145.0,171,60,19140,56,19145,11
2017-01-16 09:14:00,09:14:03,09:14:57,14269,14377,19140.0,56,19145.0,12,19145.0,19145.0,19140.0,19140.0,146,51,19140,35,19145,44
2017-01-16 09:15:00,09:15:18,09:15:28,14410,14470,19140.0,47,19145.0,43,19140.0,19140.0,19140.0,19140.0,83,-62,19140,20,19145,66
2017-01-16 09:16:00,09:16:11,09:16:59,14491,14749,19140.0,46,19145.0,65,19145.0,19145.0,19125.0,19125.0,290,-104,19125,7,19130,84
2017-01-16 09:17:00,09:17:00,09:17:49,14752,14966,19125.0,7,19130.0,84,19125.0,19130.0,19120.0,19120.0,297,-45,19120,24,19125,56
2017-01-16 09:18:00,09:18:00,09:18:38,14982,15174,19120.0,47,19125.0,50,19125.0,19125.0,19115.0,19115.0,229,-51,19110,54,19120,84
2017-01-16 09:19:00,09:19:00,09:19:52,15209,15337,19115.0,37,19120.0,103,19120.0,19120.0,19120.0,19120.0,160,160,19115,63,19120,18
2017-01-16 09:20:00,09:20:04,09:20:54,15354,15540,19115.0,83,19120.0,27,19120.0,19135.0,19120.0,19125.0,256,82,19120,55,19125,30
2017-01-16 09:21:00,09:21:00,09:21:52,15550,15714,19120.0,55,19125.0,25,19125.0,19125.0,19115.0,19125.0,140,30,19125,21,19130,40
2017-01-16 09:22:00,09:22:00,09:22:52,15726,15933,19125.0,25,19130.0,46,19125.0,19130.0,19120.0,19130.0,206,94,19130,47,19135,47
2017-01-16 09:23:00,09:23:01,09:23:41,15947,16111,19130.0,23,19135.0,62,19130.0,19135.0,19130.0,19130.0,136,-66,19125,90,19130,5
2017-01-16 09:24:00,09:24:13,09:24:20,16149,16187,19125.0,100,19130.0,20,19130.0,19130.0,19130.0,19130.0,70,-34,19130,32,19135,78
2017-01-16 09:25:00,09:25:26,09:25:58,16233,16359,19130.0,53,19135.0,85,19135.0,19135.0,19130.0,19135.0,107,-77,19130,42,19135,70
2017-01-16 09:26:00,09:26:36,09:26:50,16382,16392,19130.0,38,19135.0,74,19135.0,19135.0,19135.0,19135.0,22,22,19130,44,19135,51
2017-01-16 09:27:00,09:27:28,09:27:58,16411,16490,19130.0,49,19135.0,54,19135.0,19140.0,19135.0,19135.0,111,1,19130,57,19140,66
2017-01-16 09:28:00,09:28:21,09:28:54,16515,16553,19130.0,41,19135.0,58,19135.0,19135.0,19130.0,19130.0,23,-21,19130,3,19135,65
2017-01-16 09:29:00,09:29:02,09:29:42,16560,16609,19130.0,4,19135.0,65,19130.0,19130.0,19130.0,19130.0,18,12,19130,42,19135,56
2017-01-16 09:30:00,09:30:09,09:30:46,16644,16713,19130.0,32,19135.0,64,19135.0,19135.0,19135.0,19135.0,43,37,19130,56,19135,24
2017-01-16 09:31:00,09:31:25,09:31:59,16757,16910,19130.0,69,19135.0,37,19135.0,19135.0,19130.0,19130.0,208,-166,19125,89,19135,76
2017-01-16 09:32:00,09:32:00,09:32:55,16916,17139,19130.0,7,19135.0,76,19130.0,19145.0,19130.0,19140.0,279,213,19140,53,19145,16
2017-01-16 09:33:00,09:33:05,09:33:55,17161,17254,19140.0,53,19145.0,40,19145.0,19145.0,19140.0,19145.0,81,-69,19140,51,19145,52
2017-01-16 09:34:00,09:34:13,09:34:24,17268,17319,19140.0,48,19145.0,43,19140.0,19140.0,19140.0,19140.0,41,-21,19140,10,19145,65
2017-01-16 09:35:00,09:35:04,09:35:52,17370,17501,19140.0,46,19145.0,63,19145.0,19145.0,19140.0,19145.0,132,0,19140,83,19145,3
2017-01-16 09:36:00,09:36:12,09:36:51,17532,17565,19140.0,64,19145.0,39,19140.0,19140.0,19140.0,19140.0,2,-2,19140,75,19145,38
2017-01-16 09:37:00,09:37:52,09:37:52,17602,17603,19140.0,77,19145.0,45,19145.0,19145.0,19145.0,19145.0,2,2,19140,78,19145,42
2017-01-16 09:38:00,09:38:02,09:38:50,17609,17738,19140.0,81,19145.0,41,19140.0,19140.0,19140.0,19140.0,150,-64,19140,2,19145,55
2017-01-16 09:39:00,09:39:02,09:39:52,17753,17791,19140.0,8,19145.0,59,19140.0,19145.0,19140.0,19140.0,8,-6,19140,40,19145,51
2017-01-16 09:40:00,09:40:34,09:40:58,17804,17879,19140.0,49,19145.0,54,19140.0,19140.0,19135.0,19140.0,55,-3,19140,3,19145,53
2017-01-16 09:41:00,09:41:00,09:41:48,17881,17960,19140.0,3,19145.0,60,19140.0,19140.0,19135.0,19135.0,23,-9,19135,28,19140,43
2017-01-16 09:42:00,09:42:00,09:42:54,17965,18024,19135.0,32,19140.0,44,19135.0,19135.0,19135.0,19135.0,30,-30,19135,11,19140,53
2017-01-16 09:43:00,09:43:00,09:43:57,18033,18177,19135.0,11,19140.0,55,19135.0,19145.0,19135.0,19145.0,100,88,19140,45,19145,26
2017-01-16 09:44:00,09:44:09,09:44:59,18194,18317,19140.0,43,19145.0,43,19145.0,19150.0,19145.0,19145.0,138,88,19140,51,19150,60
2017-01-16 09:45:00,09:45:02,09:45:42,18324,18444,19140.0,50,19145.0,11,19145.0,19145.0,19140.0,19140.0,145,-38,19135,50,19140,6
2017-01-16 09:46:00,09:46:20,09:46:42,18488,18562,19135.0,42,19140.0,42,19135.0,19140.0,19135.0,19140.0,76,-36,19135,51,19140,2
2017-01-16 09:47:00,09:47:04,09:47:51,18581,18598,19135.0,54,19140.0,25,19140.0,19140.0,19135.0,19135.0,3,1,19135,39,19140,48
2017-01-16 09:48:00,09:48:26,09:48:40,18609,18659,19135.0,61,19140.0,27,19140.0,19140.0,19140.0,19140.0,53,53,19135,57,19140,11
2017-01-16 09:49:00,09:49:07,09:49:07,18684,18691,19135.0,50,19140.0,35,19135.0,19135.0,19135.0,19135.0,23,-23,19135,15,19140,47
2017-01-16 09:50:00,09:50:26,09:50:45,18721,18745,19135.0,40,19140.0,48,19135.0,19135.0,19135.0,19135.0,15,-15,19130,60,19135,21
2017-01-16 09:51:00,09:51:03,09:51:53,18760,18783,19130.0,69,19135.0,25,19130.0,19135.0,19130.0,19135.0,10,-4,19130,65,19135,21
2017-01-16 09:52:00,09:52:11,09:52:59,18789,18833,19130.0,65,19135.0,17,19130.0,19135.0,19130.0,19135.0,24,12,19135,46,19140,49
2017-01-16 09:53:00,09:53:25,09:53:39,18843,18887,19135.0,37,19140.0,55,19135.0,19135.0,19130.0,19130.0,36,-34,19125,78,19130,27
2017-01-16 09:54:00,09:54:33,09:54:42,18932,18974,19125.0,48,19130.0,107,19125.0,19125.0,19125.0,19125.0,65,13,19120,64,19125,16
2017-01-16 09:55:00,09:55:10,09:55:59,19013,19089,19120.0,53,19125.0,44,19120.0,19120.0,19115.0,19115.0,74,-72,19115,27,19120,61
2017-01-16 09:56:00,09:56:18,09:56:58,19111,19230,19115.0,45,19120.0,62,19115.0,19130.0,19115.0,19130.0,158,152,19130,48,19135,43
2017-01-16 09:57:00,09:57:08,09:57:14,19250,19281,19130.0,25,19135.0,72,19130.0,19130.0,19130.0,19130.0,25,-21,19125,45,19130,45
2017-01-16 09:58:00,09:58:21,09:58:58,19328,19402,19125.0,35,19130.0,63,19125.0,19125.0,19120.0,19125.0,74,10,19120,57,19130,50
2017-01-16 09:59:00,09:59:00,09:59:00,0,0,0.0,0,0.0,0,19125.0,19125.0,19125.0,19125.0,0,0,0,0,0,0
2017-01-16 10:00:00,10:00:09,10:00:57,19439,19476,19125.0,47,19130.0,33,19130.0,19135.0,19130.0,19135.0,25,25,19130,49,19135,50
2017-01-16 10:01:00,10:01:31,10:01:59,19488,19561,19130.0,47,19135.0,54,19130.0,19130.0,19120.0,19120.0,64,-64,19120,38,19125,40
2017-01-16 10:02:00,10:02:13,10:02:58,19571,19645,19120.0,39,19125.0,40,19120.0,19125.0,19120.0,19120.0,66,42,19120,61,19125,17
2017-01-16 10:03:00,10:03:00,10:03:49,19648,19704,19120.0,61,19125.0,17,19125.0,19125.0,19120.0,19120.0,30,4,19120,51,19125,47
2017-01-16 10:04:00,10:04:19,10:04:53,19720,19782,19120.0,52,19125.0,49,19120.0,19125.0,19120.0,19125.0,50,41,19120,49,19125,39
2017-01-16 10:05:00,10:05:20,10:05:46,19795,19813,19120.0,49,19125.0,45,19120.0,19125.0,19120.0,19125.0,5,-3,19120,62,19125,32
2017-01-16 10:06:00,10:06:00,10:06:41,19816,19836,19120.0,62,19125.0,32,19120.0,19120.0,19120.0,19120.0,4,-4,19120,60,19125,13
2017-01-16 10:07:00,10:07:00,10:07:42,19840,19908,19120.0,61,19125.0,13,19120.0,19125.0,19120.0,19125.0,30,4,19125,37,19130,45
2017-01-16 10:08:00,10:08:04,10:08:51,19924,20065,19125.0,25,19130.0,54,19125.0,19130.0,19125.0,19130.0,111,5,19125,53,19135,50
2017-01-16 10:09:00,10:09:02,10:09:54,20080,20145,19125.0,52,19130.0,22,19125.0,19130.0,19125.0,19130.0,29,21,19125,43,19130,36
2017-01-16 10:10:00,10:10:13,10:10:57,20157,20182,19125.0,46,19130.0,43,19125.0,19130.0,19125.0,19130.0,7,-1,19125,45,19130,39
2017-01-16 10:11:00,10:11:04,10:11:49,20190,20427,19125.0,37,19130.0,42,19125.0,19125.0,19105.0,19110.0,244,-182,19105,72,19110,13
2017-01-16 10:12:00,10:12:02,10:12:59,20449,20633,19105.0,77,19110.0,46,19110.0,19110.0,19100.0,19100.0,209,-139,19100,50,19105,19
2017-01-16 10:13:00,10:13:00,10:13:58,20634,20904,19100.0,42,19105.0,24,19100.0,19100.0,19085.0,19090.0,239,-187,19085,56,19095,62
2017-01-16 10:14:00,10:14:00,10:14:51,20910,21108,19085.0,53,19090.0,36,19085.0,19095.0,19085.0,19090.0,232,38,19090,56,19095,18
2017-01-16 10:15:00,10:15:01,10:15:58,21116,21218,19090.0,58,19095.0,14,19095.0,19095.0,19090.0,19090.0,68,-40,19090,51,19095,42
2017-01-16 10:16:00,10:16:01,10:16:58,21224,21354,19090.0,58,19095.0,40,19090.0,19095.0,19085.0,19085.0,68,-62,19085,49,19090,43
2017-01-16 10:17:00,10:17:01,10:17:56,21362,21684,19085.0,58,19090.0,45,19090.0,19105.0,19090.0,19105.0,422,178,19105,7,19105,5
2017-01-16 10:18:00,10:18:03,10:18:59,21689,21877,19105.0,8,19110.0,50,19105.0,19105.0,19090.0,19090.0,221,-219,19090,25,19095,52
2017-01-16 10:19:00,10:19:03,10:19:51,21885,21960,19090.0,33,19095.0,47,19090.0,19095.0,19090.0,19090.0,58,-56,19090,45,19095,40
2017-01-16 10:20:00,10:20:11,10:20:53,21983,22031,19090.0,76,19095.0,35,19090.0,19095.0,19090.0,19095.0,18,4,19090,60,19095,53
2017-01-16 10:21:00,10:21:00,10:21:59,22036,22080,19090.0,61,19095.0,54,19095.0,19095.0,19090.0,19090.0,11,-1,19090,63,19095,36
2017-01-16 10:22:00,10:22:01,10:22:57,22086,22212,19090.0,64,19095.0,34,19095.0,19095.0,19085.0,19090.0,164,-8,19090,31,19095,47
2017-01-16 10:23:00,10:23:02,10:23:59,22217,22328,19090.0,32,19095.0,48,19090.0,19095.0,19090.0,19090.0,72,-70,19090,28,19095,52
2017-01-16 10:24:00,10:24:04,10:24:57,22334,22399,19090.0,25,19095.0,54,19090.0,19090.0,19090.0,19090.0,32,-10,19090,54,19095,46
2017-01-16 10:25:00,10:25:00,10:25:55,22403,22442,19090.0,54,19095.0,48,19090.0,19090.0,19090.0,19090.0,18,-18,19090,47,19095,49
2017-01-16 10:26:00,10:26:05,10:26:59,22447,22621,19090.0,44,19095.0,47,19090.0,19095.0,19090.0,19090.0,149,-82,19090,18,19095,65
2017-01-16 10:27:00,10:27:06,10:27:59,22636,22808,19090.0,21,19095.0,66,19090.0,19095.0,19090.0,19090.0,127,-59,19090,13,19095,67
2017-01-16 10:28:00,10:28:01,10:28:59,22815,23017,19090.0,15,19095.0,67,19090.0,19095.0,19085.0,19090.0,174,20,19085,95,19090,26
2017-01-16 10:29:00,10:29:00,10:29:59,23022,23172,19085.0,90,19090.0,32,19090.0,19090.0,19085.0,19090.0,86,54,19085,71,19090,20
2017-01-16 10:30:00,10:30:00,10:30:59,23174,23526,19085.0,87,19090.0,20,19085.0,19090.0,19080.0,19085.0,394,-30,19085,48,19090,18
2017-01-16 10:31:00,10:31:00,10:31:54,23531,23702,19085.0,49,19090.0,19,19085.0,19085.0,19075.0,19075.0,97,-95,19070,56,19075,30
2017-01-16 10:32:00,10:32:00,10:32:59,23713,23871,19070.0,54,19075.0,37,19070.0,19070.0,19065.0,19065.0,159,-159,19065,80,19070,61
2017-01-16 10:33:00,10:33:00,10:33:54,23874,24148,19065.0,80,19070.0,61,19065.0,19070.0,19060.0,19065.0,316,65,19065,17,19070,47
2017-01-16 10:34:00,10:34:00,10:34:55,24159,24325,19065.0,40,19070.0,35,19070.0,19070.0,19060.0,19060.0,112,-6,19055,37,19060,33
2017-01-16 10:35:00,10:35:03,10:35:57,24338,24675,19055.0,46,19060.0,40,19055.0,19055.0,19035.0,19055.0,447,-269,19050,33,19055,17
2017-01-16 10:36:00,10:36:00,10:36:58,24681,24823,19050.0,33,19055.0,27,19055.0,19060.0,19050.0,19055.0,99,-3,19055,17,19060,64
2017-01-16 10:37:00,10:37:02,10:37:57,24827,24996,19055.0,1,19060.0,64,19055.0,19060.0,19055.0,19060.0,176,80,19055,44,19065,52
2017-01-16 10:38:00,10:38:03,10:38:58,25006,25099,19055.0,42,19060.0,4,19060.0,19060.0,19055.0,19060.0,49,31,19055,45,19060,8
2017-01-16 10:39:00,10:39:02,10:39:41,25108,25242,19055.0,43,19060.0,13,19060.0,19065.0,19060.0,19065.0,77,45,19065,19,19070,44
2017-01-16 10:40:00,10:40:01,10:40:52,25265,25321,19065.0,40,19070.0,27,19065.0,19070.0,19065.0,19065.0,12,-8,19065,28,19070,50
2017-01-16 10:41:00,10:41:02,10:41:42,25332,25384,19065.0,18,19070.0,53,19065.0,19065.0,19060.0,19060.0,22,-20,19060,28,19065,41
2017-01-16 10:42:00,10:42:03,10:42:59,25390,25489,19060.0,36,19065.0,36,19060.0,19070.0,19060.0,19070.0,83,71,19065,34,19070,36
2017-01-16 10:43:00,10:43:20,10:43:50,25510,25539,19065.0,32,19070.0,40,19065.0,19070.0,19065.0,19065.0,7,1,19065,25,19070,49
2017-01-16 10:44:00,10:44:02,10:44:34,25548,25577,19065.0,30,19070.0,49,19065.0,19070.0,19065.0,19065.0,8,-6,19065,43,19070,46
2017-01-16 10:45:00,10:45:00,10:45:50,25584,25764,19065.0,41,19070.0,47,19065.0,19070.0,19060.0,19065.0,189,60,19060,39,19065,5
2017-01-16 10:46:00,10:46:12,10:46:28,25777,25810,19060.0,40,19065.0,23,19060.0,19065.0,19060.0,19065.0,28,16,19060,38,19065,12
2017-01-16 10:47:00,10:47:53,10:47:56,25852,25890,19060.0,35,19065.0,37,19060.0,19060.0,19060.0,19060.0,45,-9,19055,31,19060,38
2017-01-16 10:48:00,10:48:07,10:48:36,25904,26008,19055.0,32,19060.0,43,19055.0,19060.0,19055.0,19055.0,121,-17,19055,14,19060,37
2017-01-16 10:49:00,10:49:07,10:49:53,26031,26236,19055.0,28,19060.0,36,19055.0,19055.0,19045.0,19050.0,195,-55,19050,3,19055,43
2017-01-16 10:50:00,10:50:15,10:50:46,26256,26299,19050.0,23,19055.0,41,19055.0,19055.0,19055.0,19055.0,33,33,19050,39,19055,17
2017-01-16 10:51:00,10:51:03,10:51:58,26310,26372,19050.0,41,19055.0,20,19055.0,19060.0,19055.0,19060.0,37,23,19055,35,19060,34
2017-01-16 10:52:00,10:52:29,10:52:59,26391,26408,19055.0,18,19060.0,45,19055.0,19055.0,19055.0,19055.0,3,-3,19055,22,19060,41
2017-01-16 10:53:00,10:53:20,10:53:39,26418,26457,19055.0,33,19060.0,37,19055.0,19060.0,19055.0,19060.0,43,-39,19055,27,19060,35
2017-01-16 10:54:00,10:54:17,10:54:50,26476,26489,19055.0,28,19060.0,35,19055.0,19055.0,19055.0,19055.0,2,-2,19055,24,19060,38
2017-01-16 10:55:00,10:55:39,10:55:48,26510,26517,19055.0,27,19060.0,33,19055.0,19055.0,19055.0,19055.0,2,-2,19055,25,19060,36
2017-01-16 10:56:00,10:56:07,10:56:30,26528,26539,19055.0,19,19060.0,35,19055.0,19055.0,19055.0,19055.0,2,-2,19055,28,19060,29
2017-01-16 10:57:00,10:57:22,10:57:23,26556,26604,19055.0,32,19060.0,26,19060.0,19065.0,19060.0,19060.0,77,77,19055,38,19060,14
2017-01-16 10:58:00,10:58:08,10:58:09,26618,26623,19055.0,41,19060.0,31,19060.0,19060.0,19060.0,19060.0,4,4,19055,46,19060,19
2017-01-16 10:59:00,10:59:00,10:59:00,0,0,0.0,0,0.0,0,19060.0,19060.0,19060.0,19060.0,0,0,0,0,0,0
2017-01-16 11:00:00,11:00:00,11:00:54,26669,26817,19055.0,53,19060.0,51,19055.0,19060.0,19050.0,19055.0,178,27,19055,23,19060,54
2017-01-16 11:01:00,11:01:00,11:01:54,26823,26921,19055.0,11,19060.0,56,19055.0,19060.0,19055.0,19060.0,119,51,19055,44,19065,49
2017-01-16 11:02:00,11:02:00,11:02:00,0,0,0.0,0,0.0,0,19060.0,19060.0,19060.0,19060.0,0,0,0,0,0,0
2017-01-16 11:03:00,11:03:00,11:03:00,0,0,0.0,0,0.0,0,19060.0,19060.0,19060.0,19060.0,0,0,0,0,0,0
2017-01-16 11:04:00,11:04:40,11:04:41,26997,27008,19055.0,42,19060.0,28,19060.0,19060.0,19060.0,19060.0,13,-1,19055,32,19060,20
2017-01-16 11:05:00,11:05:22,11:05:38,27029,27068,19055.0,34,19060.0,30,19060.0,19065.0,19060.0,19065.0,26,6,19065,29,19070,76
2017-01-16 11:06:00,11:06:03,11:06:24,27087,27144,19065.0,26,19070.0,78,19065.0,19065.0,19060.0,19065.0,45,-41,19060,48,19065,32
2017-01-16 11:07:00,11:07:23,11:07:58,27168,27213,19060.0,55,19065.0,23,19065.0,19065.0,19065.0,19065.0,54,-4,19065,2,19070,77
2017-01-16 11:08:00,11:08:00,11:08:00,0,0,0.0,0,0.0,0,19065.0,19065.0,19065.0,19065.0,0,0,0,0,0,0
2017-01-16 11:09:00,11:09:51,11:09:51,27238,27258,19065.0,27,19070.0,70,19070.0,19070.0,19070.0,19070.0,64,64,19065,43,19075,49
2017-01-16 11:10:00,11:10:24,11:10:55,27284,27371,19065.0,37,19070.0,36,19070.0,19070.0,19070.0,19070.0,78,62,19065,44,19075,53
2017-01-16 11:11:00,11:11:04,11:11:39,27377,27403,19070.0,11,19075.0,53,19070.0,19075.0,19070.0,19075.0,14,-10,19070,42,19075,32
2017-01-16 11:12:00,11:12:28,11:12:50,27423,27489,19070.0,45,19075.0,23,19075.0,19075.0,19070.0,19070.0,63,-11,19065,37,19075,44
2017-01-16 11:13:00,11:13:00,11:13:00,0,0,0.0,0,0.0,0,19070.0,19070.0,19070.0,19070.0,0,0,0,0,0,0
2017-01-16 11:14:00,11:14:04,11:14:41,27516,27566,19065.0,18,19070.0,43,19070.0,19070.0,19065.0,19070.0,32,20,19065,24,19070,41
2017-01-16 11:15:00,11:15:54,11:15:59,27601,27609,19065.0,2,19070.0,60,19065.0,19065.0,19065.0,19065.0,16,12,19065,9,19070,53
2017-01-16 11:16:00,11:16:00,11:16:00,0,0,0.0,0,0.0,0,19065.0,19065.0,19065.0,19065.0,0,0,0,0,0,0
2017-01-16 11:17:00,11:17:25,11:17:25,27639,27642,19065.0,32,19070.0,43,19065.0,19065.0,19065.0,19065.0,5,-5,19065,28,19070,44
2017-01-16 11:18:00,11:18:06,11:18:52,27659,27667,19065.0,31,19070.0,44,19065.0,19070.0,19065.0,19070.0,2,0,19065,42,19070,43
2017-01-16 11:19:00,11:19:32,11:19:32,27679,27693,19065.0,48,19070.0,42,19070.0,19070.0,19070.0,19070.0,26,26,19070,32,19075,32
2017-01-16 11:20:00,11:20:00,11:20:00,0,0,0.0,0,0.0,0,19070.0,19070.0,19070.0,19070.0,0,0,0,0,0,0
2017-01-16 11:21:00,11:21:00,11:21:00,0,0,0.0,0,0.0,0,19070.0,19070.0,19070.0,19070.0,0,0,0,0,0,0
2017-01-16 11:22:00,11:22:28,11:22:50,27750,27794,19070.0,52,19075.0,20,19075.0,19075.0,19075.0,19075.0,59,59,19070,56,19075,18
2017-01-16 11:23:00,11:23:45,11:23:49,27811,27825,19070.0,55,19075.0,12,19075.0,19080.0,19075.0,19080.0,12,12,19075,29,19080,34
2017-01-16 11:24:00,11:24:41,11:24:59,27857,27874,19075.0,37,19080.0,15,19080.0,19080.0,19080.0,19080.0,14,14,19075,29,19080,20
2017-01-16 11:25:00,11:25:16,11:25:16,27887,27887,19075.0,78,19080.0,32,19075.0,19075.0,19075.0,19075.0,3,-3,19075,72,19080,37
2017-01-16 11:26:00,11:26:30,11:26:30,27910,27910,19075.0,76,19080.0,25,19080.0,19080.0,19080.0,19080.0,1,1,19075,75,19080,23
2017-01-16 11:27:00,11:27:16,11:27:16,27922,27929,19075.0,76,19080.0,30,19080.0,19080.0,19080.0,19080.0,20,20,19075,77,19080,16
2017-01-16 11:28:00,11:28:34,11:28:48,27954,28019,19075.0,83,19080.0,10,19080.0,19080.0,19080.0,19080.0,62,29,19080,8,19085,36
2017-01-16 11:29:00,11:29:07,11:29:59,28031,28116,19080.0,28,19085.0,36,19080.0,19080.0,19075.0,19075.0,77,-67,19070,50,19075,14
2017-01-16 11:30:00,11:30:00,11:30:56,28117,28256,19075.0,2,19080.0,53,19075.0,19075.0,19075.0,19075.0,71,-15,19075,15,19080,61
2017-01-16 11:31:00,11:31:00,11:31:51,28269,28480,19075.0,43,19080.0,48,19080.0,19080.0,19060.0,19060.0,237,-133,19060,43,19065,23
2017-01-16 11:32:00,11:32:01,11:32:53,28494,28720,19060.0,43,19065.0,31,19060.0,19065.0,19055.0,19065.0,270,-86,19060,47,19065,15
2017-01-16 11:33:00,11:33:02,11:33:53,28733,28887,19060.0,59,19065.0,30,19060.0,19060.0,19055.0,19055.0,163,-137,19055,22,19060,107
2017-01-16 11:34:00,11:34:00,11:34:59,28890,29045,19055.0,21,19060.0,98,19055.0,19060.0,19050.0,19050.0,204,-46,19050,18,19055,137
2017-01-16 11:35:00,11:35:03,11:35:55,29052,29432,19050.0,28,19055.0,131,19050.0,19075.0,19045.0,19075.0,500,300,19075,32,19080,69
2017-01-16 11:36:00,11:36:01,11:36:46,29438,29596,19075.0,31,19080.0,69,19075.0,19085.0,19075.0,19080.0,146,-56,19080,21,19085,39
2017-01-16 11:37:00,11:37:07,11:37:58,29621,29834,19080.0,35,19085.0,16,19085.0,19095.0,19085.0,19085.0,249,-17,19080,41,19085,7
2017-01-16 11:38:00,11:38:06,11:38:57,29847,29940,19080.0,39,19085.0,74,19085.0,19085.0,19080.0,19080.0,91,-39,19080,3,19085,80
2017-01-16 11:39:00,11:39:18,11:39:49,29962,30042,19080.0,44,19085.0,74,19080.0,19080.0,19080.0,19080.0,83,13,19075,49,19080,14
2017-01-16 11:40:00,11:40:07,11:40:52,30057,30128,19075.0,45,19080.0,45,19075.0,19075.0,19075.0,19075.0,42,-16,19070,53,19075,26
2017-01-16 11:41:00,11:41:04,11:41:22,30142,30182,19070.0,44,19075.0,41,19070.0,19070.0,19070.0,19070.0,49,-29,19070,25,19075,39
2017-01-16 11:42:00,11:42:35,11:42:57,30235,30268,19070.0,48,19075.0,41,19070.0,19075.0,19070.0,19075.0,22,20,19075,47,19080,49
2017-01-16 11:43:00,11:43:26,11:43:54,30304,30398,19075.0,53,19080.0,46,19075.0,19075.0,19070.0,19070.0,131,3,19070,22,19075,68
2017-01-16 11:44:00,11:44:06,11:44:44,30416,30464,19070.0,12,19075.0,70,19070.0,19070.0,19065.0,19070.0,23,-17,19065,52,19070,12
2017-01-16 11:45:00,11:45:03,11:45:33,30487,30551,19065.0,42,19070.0,64,19065.0,19065.0,19065.0,19065.0,73,3,19065,13,19070,78
2017-01-16 11:46:00,11:46:07,11:46:28,30566,30596,19065.0,13,19070.0,78,19065.0,19065.0,19065.0,19065.0,24,-10,19060,57,19070,77
2017-01-16 11:47:00,11:47:01,11:47:57,30633,30802,19060.0,38,19065.0,59,19060.0,19065.0,19060.0,19060.0,251,61,19060,43,19065,36
2017-01-16 11:48:00,11:48:22,11:48:25,30825,30834,19060.0,49,19065.0,47,19060.0,19060.0,19060.0,19060.0,17,-17,19060,44,19065,61
2017-01-16 11:49:00,11:49:01,11:49:58,30849,30980,19060.0,47,19065.0,51,19065.0,19065.0,19060.0,19060.0,106,-18,19055,52,19060,19
2017-01-16 11:50:00,11:50:00,11:50:55,30986,31494,19055.0,57,19060.0,23,19055.0,19090.0,19055.0,19075.0,735,89,19070,36,19075,12
2017-01-16 11:51:00,11:51:02,11:51:59,31507,32143,19070.0,44,19075.0,18,19075.0,19085.0,19060.0,19080.0,824,-108,19075,36,19080,25
2017-01-16 11:52:00,11:52:04,11:52:59,32152,32439,19075.0,41,19080.0,31,19080.0,19085.0,19065.0,19065.0,339,-125,19065,10,19070,36
2017-01-16 11:53:00,11:53:04,11:53:57,32447,32582,19065.0,7,19070.0,40,19065.0,19065.0,19060.0,19060.0,125,-47,19055,38,19060,2
2017-01-16 11:54:00,11:54:08,11:54:39,32594,32667,19055.0,36,19060.0,3,19060.0,19060.0,19055.0,19060.0,62,-44,19060,7,19065,34
2017-01-16 11:55:00,11:55:21,11:55:57,32692,32711,19055.0,19,19060.0,26,19055.0,19060.0,19055.0,19055.0,6,-4,19055,27,19060,18
2017-01-16 11:56:00,11:56:08,11:56:35,32721,32737,19055.0,19,19060.0,53,19055.0,19055.0,19055.0,19055.0,5,-5,19055,11,19060,56
2017-01-16 11:57:00,11:57:09,11:57:55,32743,32812,19055.0,14,19060.0,56,19055.0,19055.0,19050.0,19055.0,54,-14,19050,46,19060,63
2017-01-16 11:58:00,11:58:07,11:58:56,32827,32920,19055.0,23,19060.0,59,19055.0,19055.0,19050.0,19055.0,50,-32,19050,24,19055,38
2017-01-16 11:59:00,11:59:31,11:59:52,32932,32976,19050.0,43,19055.0,21,19050.0,19050.0,19045.0,19045.0,29,-27,19045,20,19050,33
2017-01-16 12:00:00,12:00:01,12:00:44,32990,33118,19045.0,42,19050.0,8,19050.0,19055.0,19045.0,19055.0,120,110,19050,52,19055,10
2017-01-16 12:01:00,12:01:02,12:01:57,33131,33211,19050.0,53,19055.0,8,19055.0,19060.0,19055.0,19055.0,44,-12,19050,54,19055,5
2017-01-16 12:02:00,12:02:09,12:02:57,33222,33283,19050.0,50,19055.0,17,19055.0,19055.0,19055.0,19055.0,16,-6,19055,17,19060,54
2017-01-16 12:03:00,12:03:59,12:03:59,33324,33324,19055.0,33,19060.0,19,19060.0,19060.0,19060.0,19060.0,1,1,19055,34,19060,18
2017-01-16 12:04:00,12:04:00,12:04:55,33327,33429,19055.0,34,19060.0,18,19060.0,19065.0,19055.0,19060.0,67,52,19055,43,19060,14
2017-01-16 12:05:00,12:05:24,12:05:50,33458,33488,19055.0,35,19060.0,33,19060.0,19060.0,19060.0,19060.0,14,14,19055,43,19065,48
2017-01-16 12:06:00,12:06:02,12:06:19,33499,33572,19055.0,44,19060.0,16,19060.0,19060.0,19060.0,19060.0,80,80,19060,38,19065,42
2017-01-16 12:07:00,12:07:00,12:07:24,33599,33736,19060.0,45,19065.0,19,19065.0,19075.0,19065.0,19065.0,183,115,19065,11,19070,47
2017-01-16 12:08:00,12:08:03,12:08:55,33752,33865,19065.0,22,19070.0,45,19065.0,19075.0,19065.0,19075.0,117,27,19070,30,19075,71
2017-01-16 12:09:00,12:09:03,12:09:59,33868,34062,19070.0,30,19075.0,71,19070.0,19070.0,19070.0,19070.0,153,-8,19065,40,19070,5
2017-01-16 12:10:00,12:10:32,12:10:46,34081,34103,19065.0,47,19070.0,18,19070.0,19070.0,19065.0,19065.0,23,13,19065,34,19070,37
2017-01-16 12:11:00,12:11:33,12:11:33,34126,34138,19065.0,53,19070.0,37,19070.0,19070.0,19070.0,19070.0,18,18,19065,65,19070,9
2017-01-16 12:12:00,12:12:05,12:12:55,34166,34324,19065.0,66,19070.0,67,19065.0,19065.0,19060.0,19065.0,199,-121,19065,29,19070,70
2017-01-16 12:13:00,12:13:06,12:13:34,34333,34394,19065.0,38,19070.0,68,19065.0,19065.0,19065.0,19065.0,74,4,19060,49,19065,12
2017-01-16 12:14:00,12:14:04,12:14:46,34412,34480,19060.0,46,19065.0,20,19065.0,19065.0,19065.0,19065.0,36,-4,19060,45,19065,2
2017-01-16 12:15:00,12:15:36,12:15:46,34508,34552,19060.0,45,19065.0,26,19060.0,19065.0,19060.0,19065.0,44,4,19060,39,19065,26
2017-01-16 12:16:00,12:16:28,12:16:49,34586,34614,19060.0,55,19065.0,33,19060.0,19065.0,19060.0,19065.0,29,19,19060,37,19065,42
2017-01-16 12:17:00,12:17:26,12:17:47,34622,34724,19060.0,34,19065.0,46,19060.0,19060.0,19055.0,19060.0,85,-41,19055,41,19060,10
2017-01-16 12:18:00,12:18:03,12:18:53,34748,35294,19055.0,43,19060.0,35,19055.0,19095.0,19055.0,19090.0,886,476,19090,22,19095,39
2017-01-16 12:19:00,12:19:00,12:19:09,35305,35370,19090.0,28,19095.0,44,19090.0,19090.0,19090.0,19090.0,82,-74,19085,41,19090,14
2017-01-16 12:20:00,12:20:42,12:20:58,35441,35601,19085.0,64,19090.0,19,19090.0,19115.0,19090.0,19115.0,236,236,19110,44,19115,14
2017-01-16 12:21:00,12:21:00,12:21:54,35612,35969,19110.0,39,19115.0,31,19110.0,19110.0,19095.0,19095.0,386,-146,19090,33,19095,17
2017-01-16 12:22:00,12:22:03,12:22:48,35980,36186,19090.0,37,19095.0,18,19090.0,19095.0,19090.0,19095.0,229,27,19090,26,19095,14
2017-01-16 12:23:00,12:23:43,12:23:58,36222,36294,19090.0,41,19095.0,20,19095.0,19100.0,19095.0,19100.0,92,50,19100,21,19105,43
2017-01-16 12:24:00,12:24:02,12:24:54,36300,36417,19100.0,19,19105.0,45,19100.0,19105.0,19100.0,19105.0,117,31,19100,35,19105,12
2017-01-16 12:25:00,12:25:02,12:25:56,36426,36522,19100.0,34,19105.0,5,19105.0,19110.0,19105.0,19105.0,62,60,19105,34,19110,38
2017-01-16 12:26:00,12:26:20,12:26:20,36541,36549,19105.0,54,19110.0,38,19110.0,19110.0,19110.0,19110.0,20,20,19105,55,19110,28
2017-01-16 12:27:00,12:27:05,12:27:59,36571,36667,19105.0,37,19110.0,45,19110.0,19110.0,19105.0,19110.0,108,44,19105,49,19115,39
2017-01-16 12:28:00,12:28:00,12:28:35,36670,36760,19105.0,49,19115.0,39,19110.0,19115.0,19110.0,19110.0,67,-18,19110,28,19115,23
2017-01-16 12:29:00,12:29:15,12:29:56,36791,36864,19110.0,31,19115.0,30,19110.0,19110.0,19105.0,19105.0,64,-64,19105,7,19110,49
2017-01-16 12:30:00,12:30:08,12:30:48,36872,36903,19105.0,7,19110.0,48,19105.0,19110.0,19105.0,19110.0,33,17,19105,8,19110,37
2017-01-16 12:31:00,12:31:14,12:31:32,36928,36974,19105.0,10,19110.0,36,19110.0,19115.0,19110.0,19115.0,52,52,19110,45,19115,12
2017-01-16 12:32:00,12:32:22,12:32:22,37000,37000,19110.0,44,19115.0,11,19115.0,19115.0,19115.0,19115.0,2,2,19110,49,19115,10
2017-01-16 12:33:00,12:33:09,12:33:51,37040,37190,19110.0,26,19115.0,33,19110.0,19115.0,19100.0,19100.0,145,-133,19095,41,19100,7
2017-01-16 12:34:00,12:34:06,12:34:55,37205,37259,19095.0,36,19100.0,4,19100.0,19105.0,19100.0,19105.0,42,32,19100,37,19110,68
2017-01-16 12:35:00,12:35:28,12:35:55,37290,37324,19100.0,36,19105.0,14,19105.0,19105.0,19105.0,19105.0,26,8,19105,13,19110,59
2017-01-16 12:36:00,12:36:06,12:36:08,37331,37363,19105.0,18,19110.0,58,19110.0,19110.0,19110.0,19110.0,70,64,19110,12,19115,38
2017-01-16 12:37:00,12:37:57,12:37:57,37421,37424,19110.0,11,19115.0,47,19110.0,19110.0,19110.0,19110.0,5,-5,19110,6,19115,48
2017-01-16 12:38:00,12:38:18,12:38:58,37438,37478,19110.0,8,19115.0,48,19110.0,19115.0,19110.0,19115.0,17,3,19110,20,19115,37
2017-01-16 12:39:00,12:39:01,12:39:32,37485,37541,19110.0,40,19115.0,37,19115.0,19115.0,19115.0,19115.0,44,44,19110,52,19115,3
2017-01-16 12:40:00,12:40:25,12:40:56,37576,37611,19110.0,51,19115.0,12,19110.0,19115.0,19110.0,19115.0,18,16,19110,51,19115,1
2017-01-16 12:41:00,12:41:05,12:41:58,37620,38079,19110.0,49,19115.0,7,19115.0,19140.0,19115.0,19135.0,715,272,19130,68,19135,3
2017-01-16 12:42:00,12:42:05,12:42:58,38091,38208,19130.0,70,19135.0,20,19135.0,19140.0,19130.0,19140.0,76,72,19135,51,19140,20
2017-01-16 12:43:00,12:43:08,12:43:17,38217,38257,19135.0,89,19140.0,29,19135.0,19140.0,19135.0,19135.0,111,-71,19130,71,19135,27
2017-01-16 12:44:00,12:44:31,12:44:36,38309,38370,19130.0,63,19135.0,49,19130.0,19130.0,19125.0,19130.0,152,-112,19125,40,19135,56
2017-01-16 12:45:00,12:45:08,12:45:08,38392,38392,19125.0,41,19130.0,17,19130.0,19130.0,19130.0,19130.0,1,1,19125,38,19130,16
2017-01-16 12:46:00,12:46:00,12:46:00,0,0,0.0,0,0.0,0,19130.0,19130.0,19130.0,19130.0,0,0,0,0,0,0
2017-01-16 12:47:00,12:47:24,12:47:32,38455,38459,19125.0,44,19130.0,38,19125.0,19130.0,19125.0,19130.0,3,-1,19125,44,19130,37
2017-01-16 12:48:00,12:48:00,12:48:00,0,0,0.0,0,0.0,0,19130.0,19130.0,19130.0,19130.0,0,0,0,0,0,0
2017-01-16 12:49:00,12:49:13,12:49:53,38474,38612,19125.0,46,19130.0,45,19125.0,19125.0,19120.0,19125.0,250,-86,19120,51,19125,17
2017-01-16 12:50:00,12:50:23,12:50:49,38646,38668,19120.0,57,19125.0,10,19125.0,19125.0,19120.0,19120.0,13,9,19120,55,19125,30
2017-01-16 12:51:00,12:51:08,12:51:08,38677,38677,19120.0,56,19125.0,26,19125.0,19125.0,19125.0,19125.0,1,1,19120,55,19125,24
2017-01-16 12:52:00,12:52:53,12:52:53,38712,38724,19120.0,51,19125.0,34,19125.0,19125.0,19125.0,19125.0,17,17,19120,49,19125,15
2017-01-16 12:53:00,12:53:29,12:53:50,38743,38806,19120.0,46,19125.0,35,19120.0,19120.0,19120.0,19120.0,95,-75,19120,20,19125,33
2017-01-16 12:54:00,12:54:38,12:54:59,38835,38912,19120.0,34,19125.0,36,19125.0,19125.0,19120.0,19120.0,72,-10,19120,17,19125,32
2017-01-16 12:55:00,12:55:33,12:55:59,38937,38994,19120.0,16,19125.0,45,19120.0,19130.0,19120.0,19130.0,49,13,19125,11,19130,40
2017-01-16 12:56:00,12:56:00,12:56:49,38997,39062,19125.0,11,19130.0,40,19125.0,19125.0,19120.0,19125.0,33,-9,19120,56,19125,8
2017-01-16 12:57:00,12:57:00,12:57:31,39068,39148,19120.0,56,19125.0,10,19125.0,19125.0,19120.0,19120.0,80,-12,19115,42,19120,6
2017-01-16 12:58:00,12:58:55,12:58:55,39176,39179,19115.0,23,19120.0,37,19120.0,19120.0,19120.0,19120.0,3,3,19120,10,19125,31
2017-01-16 12:59:00,12:59:00,12:59:42,39189,39339,19120.0,12,19125.0,51,19125.0,19125.0,19110.0,19110.0,214,-116,19110,30,19115,26
2017-01-16 13:00:00,13:00:00,13:00:39,39353,39476,19110.0,32,19115.0,33,19110.0,19115.0,19110.0,19115.0,91,-28,19115,17,19120,45
2017-01-16 13:01:00,13:01:04,13:01:58,39486,39587,19115.0,17,19120.0,46,19115.0,19115.0,19110.0,19110.0,74,-26,19110,10,19115,58
2017-01-16 13:02:00,13:02:00,13:02:59,39591,39676,19110.0,6,19115.0,58,19110.0,19115.0,19110.0,19115.0,75,25,19110,45,19115,8
2017-01-16 13:03:00,13:03:07,13:03:56,39688,39723,19110.0,40,19115.0,28,19115.0,19115.0,19110.0,19110.0,29,-5,19110,11,19115,38
2017-01-16 13:04:00,13:04:04,13:04:50,39737,39860,19110.0,22,19115.0,35,19115.0,19120.0,19115.0,19120.0,103,55,19115,45,19120,19
2017-01-16 13:05:00,13:05:00,13:05:54,39874,39890,19115.0,42,19120.0,22,19120.0,19120.0,19115.0,19115.0,2,0,19115,45,19120,29
2017-01-16 13:06:00,13:06:32,13:06:32,39910,39923,19115.0,28,19120.0,37,19115.0,19115.0,19115.0,19115.0,28,-28,19110,32,19115,40
2017-01-16 13:07:00,13:07:05,13:07:53,39939,40098,19110.0,21,19115.0,53,19110.0,19110.0,19100.0,19105.0,157,-79,19105,10,19110,35
2017-01-16 13:08:00,13:08:15,13:08:57,40118,40168,19105.0,6,19110.0,50,19105.0,19105.0,19105.0,19105.0,33,-21,19105,11,19110,38
2017-01-16 13:09:00,13:09:20,13:09:49,40182,40246,19105.0,30,19110.0,36,19110.0,19110.0,19110.0,19110.0,67,65,19110,31,19115,39
2017-01-16 13:10:00,13:10:01,13:10:56,40251,40358,19110.0,32,19115.0,40,19110.0,19110.0,19105.0,19105.0,66,-44,19100,41,19105,16
2017-01-16 13:11:00,13:11:03,13:11:57,40364,40535,19100.0,41,19105.0,13,19105.0,19110.0,19105.0,19110.0,132,68,19105,45,19115,44
2017-01-16 13:12:00,13:12:10,13:12:59,40545,40653,19110.0,6,19115.0,47,19110.0,19110.0,19105.0,19105.0,59,-44,19100,43,19105,22
2017-01-16 13:13:00,13:13:00,13:13:55,40654,40708,19105.0,21,19110.0,35,19100.0,19105.0,19100.0,19105.0,25,15,19100,51,19105,6
2017-01-16 13:14:00,13:14:10,13:14:56,40725,40807,19100.0,51,19105.0,19,19100.0,19100.0,19100.0,19100.0,74,-74,19100,37,19105,25
2017-01-16 13:15:00,13:15:00,13:15:00,0,0,0.0,0,0.0,0,19100.0,19100.0,19100.0,19100.0,0,0,0,0,0,0
2017-01-16 13:16:00,13:16:02,13:16:35,40837,40889,19100.0,34,19105.0,24,19105.0,19105.0,19105.0,19105.0,47,47,19100,34,19105,25
2017-01-16 13:17:00,13:17:00,13:17:00,0,0,0.0,0,0.0,0,19105.0,19105.0,19105.0,19105.0,0,0,0,0,0,0
2017-01-16 13:18:00,13:18:44,13:18:57,40928,41012,19100.0,26,19105.0,43,19105.0,19105.0,19100.0,19100.0,85,1,19095,34,19100,22
2017-01-16 13:19:00,13:19:00,13:19:55,41018,41052,19095.0,39,19100.0,16,19095.0,19095.0,19095.0,19095.0,5,-5,19095,29,19100,55
2017-01-16 13:20:00,13:20:00,13:20:50,41059,41211,19095.0,19,19100.0,60,19095.0,19095.0,19090.0,19095.0,125,-53,19095,6,19100,44
2017-01-16 13:21:00,13:21:06,13:21:57,41227,41293,19095.0,17,19100.0,43,19100.0,19100.0,19095.0,19095.0,28,-4,19095,21,19100,33
2017-01-16 13:22:00,13:22:07,13:22:57,41300,41371,19095.0,25,19100.0,34,19095.0,19095.0,19095.0,19095.0,30,-14,19095,21,19100,45
2017-01-16 13:23:00,13:23:00,13:23:57,41377,41447,19095.0,22,19100.0,46,19095.0,19095.0,19095.0,19095.0,39,1,19095,4,19100,39
2017-01-16 13:24:00,13:24:07,13:24:57,41454,41540,19095.0,15,19100.0,42,19095.0,19095.0,19090.0,19090.0,27,-13,19090,30,19095,40
2017-01-16 13:25:00,13:25:00,13:25:57,41546,41654,19090.0,40,19095.0,24,19090.0,19105.0,19090.0,19105.0,69,57,19105,14,19110,53
2017-01-16 13:26:00,13:26:00,13:26:57,41663,41739,19105.0,16,19110.0,54,19105.0,19110.0,19100.0,19100.0,42,-28,19100,53,19105,19
2017-01-16 13:27:00,13:27:07,13:27:59,41754,41871,19100.0,53,19105.0,26,19100.0,19100.0,19090.0,19090.0,85,-84,19090,27,19095,30
2017-01-16 13:28:00,13:28:00,13:28:57,41875,42050,19090.0,30,19095.0,30,19090.0,19095.0,19085.0,19090.0,110,-42,19090,54,19095,38
2017-01-16 13:29:00,13:29:07,13:29:57,42056,42258,19090.0,54,19095.0,36,19090.0,19100.0,19090.0,19095.0,219,161,19095,12,19100,42
2017-01-16 13:30:00,13:30:02,13:30:57,42268,42384,19095.0,23,19100.0,39,19095.0,19095.0,19090.0,19095.0,70,-36,19090,52,19100,45
2017-01-16 13:31:00,13:31:05,13:31:59,42397,42498,19095.0,21,19100.0,43,19100.0,19105.0,19100.0,19105.0,66,56,19100,61,19110,57
2017-01-16 13:32:00,13:32:00,13:32:57,42503,42662,19105.0,1,19110.0,58,19105.0,19105.0,19095.0,19100.0,179,-145,19095,15,19100,56
2017-01-16 13:33:00,13:33:04,13:33:57,42669,42768,19095.0,24,19100.0,54,19100.0,19105.0,19095.0,19100.0,151,75,19100,28,19105,39
2017-01-16 13:34:00,13:34:07,13:34:57,42777,42812,19100.0,42,19105.0,33,19100.0,19100.0,19100.0,19100.0,7,-7,19100,30,19105,45
2017-01-16 13:35:00,13:35:07,13:35:57,42820,42874,19100.0,45,19105.0,43,19100.0,19105.0,19100.0,19100.0,19,-15,19100,20,19105,38
2017-01-16 13:36:00,13:36:07,13:36:57,42883,43013,19100.0,25,19105.0,40,19100.0,19100.0,19095.0,19095.0,136,62,19095,21,19100,39
2017-01-16 13:37:00,13:37:07,13:37:57,43021,43095,19095.0,21,19100.0,44,19095.0,19100.0,19095.0,19095.0,41,15,19095,56,19100,27
2017-01-16 13:38:00,13:38:07,13:38:57,43109,43168,19095.0,49,19100.0,37,19095.0,19100.0,19095.0,19095.0,37,-35,19095,25,19100,43
2017-01-16 13:39:00,13:39:07,13:39:57,43182,43228,19095.0,38,19100.0,37,19095.0,19100.0,19095.0,19095.0,11,-9,19095,36,19100,42
2017-01-16 13:40:00,13:40:05,13:40:59,43242,43388,19095.0,48,19100.0,34,19100.0,19100.0,19095.0,19100.0,113,49,19095,51,19100,12
2017-01-16 13:41:00,13:41:01,13:41:57,43394,43504,19095.0,51,19100.0,11,19100.0,19110.0,19100.0,19105.0,51,19,19105,36,19110,42
2017-01-16 13:42:00,13:42:07,13:42:57,43518,43575,19105.0,47,19110.0,43,19105.0,19110.0,19105.0,19105.0,8,-6,19105,29,19110,45
2017-01-16 13:43:00,13:43:01,13:43:59,43580,43769,19105.0,32,19110.0,45,19105.0,19115.0,19105.0,19110.0,158,62,19105,58,19115,40
2017-01-16 13:44:00,13:44:00,13:44:57,43770,43882,19105.0,57,19110.0,5,19110.0,19110.0,19105.0,19105.0,55,-17,19105,52,19110,28
2017-01-16 13:45:00,13:45:00,13:45:00,43887,43894,19105.0,58,19110.0,28,19105.0,19110.0,19105.0,19110.0,5,1,19105,29,19110,54
2017-01-16 13:46:00,13:46:03,13:46:54,43941,43978,19105.0,22,19110.0,72,19110.0,19110.0,19105.0,19105.0,13,3,19105,28,19110,66
2017-01-16 13:47:00,13:47:04,13:47:59,43993,44096,19105.0,29,19110.0,63,19105.0,19110.0,19105.0,19105.0,104,-98,19100,49,19105,5
2017-01-16 13:48:00,13:48:00,13:48:48,44100,44137,19100.0,49,19105.0,20,19100.0,19105.0,19100.0,19105.0,8,0,19100,39,19105,50
2017-01-16 13:49:00,13:49:59,13:49:59,44178,44178,19100.0,59,19105.0,83,19100.0,19100.0,19100.0,19100.0,1,-1,19100,58,19105,84
2017-01-16 13:50:00,13:50:01,13:50:42,44181,44299,19100.0,58,19105.0,84,19105.0,19105.0,19100.0,19105.0,137,35,19100,74,19110,94
2017-01-16 13:51:00,13:51:29,13:51:55,44342,44407,19100.0,55,19105.0,57,19105.0,19105.0,19095.0,19095.0,52,-50,19090,85,19100,94
2017-01-16 13:52:00,13:52:00,13:52:58,44422,44494,19090.0,67,19095.0,62,19090.0,19095.0,19090.0,19090.0,26,-20,19090,47,19095,85
2017-01-16 13:53:00,13:53:08,13:53:54,44506,44626,19090.0,51,19095.0,84,19095.0,19095.0,19090.0,19095.0,116,14,19095,4,19100,78
2017-01-16 13:54:00,13:54:03,13:54:05,44641,44670,19095.0,9,19100.0,78,19100.0,19100.0,19095.0,19095.0,48,-46,19090,43,19095,17
2017-01-16 13:55:00,13:55:00,13:55:54,44706,44803,19090.0,77,19095.0,47,19095.0,19100.0,19095.0,19095.0,93,7,19090,93,19095,34
2017-01-16 13:56:00,13:56:02,13:56:52,44815,44929,19090.0,96,19095.0,41,19090.0,19100.0,19090.0,19095.0,97,-21,19090,79,19095,21
2017-01-16 13:57:00,13:57:01,13:57:56,44952,45179,19090.0,79,19095.0,37,19095.0,19105.0,19090.0,19095.0,282,6,19090,103,19095,39
2017-01-16 13:58:00,13:58:01,13:58:50,45190,45330,19090.0,96,19095.0,47,19090.0,19095.0,19090.0,19095.0,159,111,19090,106,19095,51
2017-01-16 13:59:00,13:59:01,13:59:59,45342,45736,19090.0,117,19095.0,61,19095.0,19095.0,19085.0,19090.0,494,-22,19085,117,19090,48
2017-01-16 14:00:00,14:00:00,14:00:58,45737,46233,19085.0,150,19090.0,36,19090.0,19095.0,19080.0,19085.0,828,-58,19080,112,19085,78
2017-01-16 14:01:00,14:01:00,14:01:59,46238,46647,19080.0,114,19085.0,76,19080.0,19085.0,19065.0,19065.0,714,-380,19065,108,19070,108
2017-01-16 14:02:00,14:02:00,14:02:54,46648,46861,19065.0,110,19070.0,89,19065.0,19075.0,19065.0,19070.0,359,41,19065,56,19070,57
2017-01-16 14:03:00,14:03:00,14:03:52,46873,47011,19065.0,58,19070.0,76,19065.0,19075.0,19065.0,19075.0,131,121,19070,126,19075,45
2017-01-16 14:04:00,14:04:00,14:04:58,47017,47196,19070.0,127,19075.0,96,19070.0,19075.0,19065.0,19065.0,192,-28,19065,119,19070,38
2017-01-16 14:05:00,14:05:03,14:05:48,47205,47391,19065.0,124,19070.0,36,19070.0,19075.0,19070.0,19075.0,244,28,19070,160,19075,127
2017-01-16 14:06:00,14:06:02,14:06:59,47405,47739,19070.0,154,19075.0,127,19075.0,19080.0,19055.0,19060.0,760,-232,19060,26,19065,99
2017-01-16 14:07:00,14:07:00,14:07:59,47742,47998,19060.0,26,19065.0,99,19060.0,19060.0,19045.0,19045.0,366,-154,19045,54,19050,38
2017-01-16 14:08:00,14:08:00,14:08:59,48003,48521,19045.0,55,19050.0,43,19045.0,19075.0,19045.0,19055.0,1136,442,19050,71,19055,19
2017-01-16 14:09:00,14:09:00,14:09:59,48524,48789,19050.0,71,19055.0,19,19055.0,19060.0,19055.0,19060.0,410,62,19060,3,19065,27
