,ST,ET,sidx,eidx,bB,bBS,bA,bAS,O,H,L,C,V,OF,eB,eBS,eA,eAS
2017-01-03 08:00:00,08:00:00,08:00:59,1049,1343,19220.0,50,19225.0,38,19225.0,19225.0,19190.0,19205.0,304,-138,19200,22,19205,4
2017-01-03 08:01:00,08:01:01,08:01:59,1350,1561,19200.0,21,19205.0,6,19205.0,19225.0,19200.0,19205.0,137,-5,19205,16,19210,7
2017-01-03 08:02:00,08:02:03,08:02:49,1570,1818,19205.0,22,19210.0,10,19205.0,19220.0,19180.0,19190.0,201,-55,19190,14,19195,10
2017-01-03 08:03:00,08:03:19,08:03:53,1831,1877,19190.0,13,19195.0,10,19190.0,19190.0,19185.0,19190.0,24,-22,19185,10,19190,16
2017-01-03 08:04:00,08:04:10,08:04:35,1882,2003,19185.0,10,19190.0,18,19185.0,19185.0,19160.0,19180.0,108,-60,19180,1,19185,19
2017-01-03 08:05:00,08:05:00,08:05:52,2012,2054,19180.0,6,19185.0,12,19180.0,19180.0,19165.0,19165.0,26,-24,19160,8,19165,44
2017-01-03 08:06:00,08:06:03,08:06:53,2065,2204,19160.0,9,19165.0,50,19160.0,19160.0,19150.0,19155.0,120,-70,19150,14,19160,8
2017-01-03 08:07:00,08:07:19,08:07:46,2223,2249,19160.0,8,19165.0,12,19160.0,19165.0,19155.0,19160.0,26,-12,19155,14,19165,12
2017-01-03 08:08:00,08:08:10,08:08:19,2259,2268,19165.0,1,19170.0,13,19165.0,19165.0,19160.0,19160.0,9,-9,19155,8,19160,11
2017-01-03 08:09:00,08:09:04,08:09:46,2280,2294,19155.0,9,19160.0,19,19155.0,19155.0,19155.0,19155.0,4,-2,19150,19,19155,16
2017-01-03 08:10:00,08:10:00,08:10:23,2298,2309,19150.0,19,19155.0,14,19150.0,19155.0,19150.0,19155.0,4,2,19150,16,19155,14
2017-01-03 08:11:00,08:11:30,08:11:57,2319,2322,19150.0,16,19155.0,19,19150.0,19150.0,19150.0,19150.0,2,-2,19150,16,19155,6
2017-01-03 08:12:00,08:12:12,08:12:27,2327,2352,19150.0,25,19155.0,6,19155.0,19160.0,19155.0,19160.0,16,-2,19155,7,19160,6
2017-01-03 08:13:00,08:13:40,08:13:41,2360,2362,19155.0,8,19160.0,13,19155.0,19160.0,19155.0,19160.0,3,-1,19155,16,19160,12
2017-01-03 08:14:00,08:14:03,08:14:57,2370,2388,19155.0,22,19160.0,8,19160.0,19160.0,19155.0,19160.0,11,1,19155,16,19160,5
2017-01-03 08:15:00,08:15:00,08:15:54,2392,2434,19155.0,22,19160.0,5,19155.0,19160.0,19155.0,19160.0,15,1,19155,11,19160,7
2017-01-03 08:16:00,08:16:11,08:16:30,2439,2452,19155.0,18,19160.0,6,19160.0,19160.0,19155.0,19155.0,10,-6,19155,12,19160,10
2017-01-03 08:17:00,08:17:19,08:17:59,2479,2516,19155.0,3,19160.0,11,19155.0,19165.0,19155.0,19165.0,34,26,19160,2,19165,15
2017-01-03 08:18:00,08:18:00,08:18:49,2517,2648,19160.0,8,19165.0,10,19160.0,19170.0,19145.0,19150.0,90,-42,19150,15,19155,5
2017-01-03 08:19:00,08:19:00,08:19:39,2657,2716,19150.0,17,19155.0,7,19155.0,19165.0,19155.0,19165.0,36,-14,19160,12,19165,13
2017-01-03 08:20:00,08:20:00,08:20:19,2722,2733,19160.0,11,19165.0,14,19160.0,19160.0,19160.0,19160.0,5,-5,19160,6,19165,15
2017-01-03 08:21:00,08:21:08,08:21:54,2739,2889,19160.0,6,19165.0,14,19165.0,19185.0,19165.0,19180.0,144,123,19180,1,19185,32
2017-01-03 08:22:00,08:22:19,08:22:29,2904,2922,19175.0,7,19180.0,13,19175.0,19175.0,19175.0,19175.0,10,-10,19170,16,19175,1
2017-01-03 08:23:00,08:23:19,08:23:25,2941,2970,19170.0,11,19175.0,26,19170.0,19170.0,19165.0,19165.0,22,-22,19165,15,19170,8
2017-01-03 08:24:00,08:24:34,08:24:36,3012,3049,19165.0,29,19170.0,15,19170.0,19175.0,19170.0,19170.0,45,5,19170,6,19175,16
2017-01-03 08:25:00,08:25:00,08:25:50,3058,3115,19170.0,7,19175.0,17,19170.0,19170.0,19170.0,19170.0,39,-35,19165,27,19170,3
2017-01-03 08:26:00,08:26:25,08:26:32,3122,3174,19165.0,29,19170.0,5,19170.0,19185.0,19170.0,19185.0,107,107,19180,16,19185,1
2017-01-03 08:27:00,08:27:17,08:27:20,3200,3221,19180.0,10,19185.0,18,19180.0,19180.0,19170.0,19170.0,27,-27,19170,10,19175,8
2017-01-03 08:28:00,08:28:00,08:28:00,0,0,0.0,0,0.0,0,19170.0,19170.0,19170.0,19170.0,0,0,0,0,0,0
2017-01-03 08:29:00,08:29:13,08:29:34,3232,3245,19170.0,13,19175.0,10,19175.0,19175.0,19175.0,19175.0,10,6,19175,6,19180,9
2017-01-03 08:30:00,08:30:00,08:30:39,3256,3268,19175.0,6,19180.0,25,19175.0,19175.0,19175.0,19175.0,8,-8,19170,13,19175,2
2017-01-03 08:31:00,08:31:00,08:31:00,0,0,0.0,0,0.0,0,19175.0,19175.0,19175.0,19175.0,0,0,0,0,0,0
2017-01-03 08:32:00,08:32:00,08:32:00,0,0,0.0,0,0.0,0,19175.0,19175.0,19175.0,19175.0,0,0,0,0,0,0
2017-01-03 08:33:00,08:33:16,08:33:16,3293,3299,19170.0,19,19175.0,9,19175.0,19180.0,19175.0,19180.0,10,10,19175,6,19180,8
2017-01-03 08:34:00,08:34:48,08:34:48,3313,3313,19175.0,18,19180.0,7,19180.0,19180.0,19180.0,19180.0,1,1,19175,21,19185,31
2017-01-03 08:35:00,08:35:00,08:35:54,3318,3347,19175.0,21,19185.0,31,19175.0,19175.0,19175.0,19175.0,27,-25,19175,4,19180,10
2017-01-03 08:36:00,08:36:03,08:36:46,3352,3406,19175.0,7,19180.0,11,19175.0,19180.0,19170.0,19170.0,34,-16,19170,3,19175,9
2017-01-03 08:37:00,08:37:04,08:37:50,3408,3424,19170.0,3,19175.0,10,19175.0,19175.0,19170.0,19170.0,6,-4,19165,39,19170,2
2017-01-03 08:38:00,08:38:44,08:38:44,3438,3439,19170.0,2,19175.0,13,19170.0,19170.0,19170.0,19170.0,3,-3,19165,34,19170,2
2017-01-03 08:39:00,08:39:29,08:39:41,3449,3456,19170.0,10,19175.0,13,19170.0,19175.0,19170.0,19175.0,5,-1,19170,7,19175,11
2017-01-03 08:40:00,08:40:00,08:40:00,3460,3460,19170.0,8,19175.0,11,19170.0,19170.0,19170.0,19170.0,1,-1,19170,6,19170,2
2017-01-03 08:41:00,08:41:03,08:41:56,3466,3493,19170.0,12,19175.0,11,19170.0,19175.0,19170.0,19175.0,17,-3,19170,17,19175,2
2017-01-03 08:42:00,08:42:09,08:42:56,3500,3541,19170.0,12,19175.0,7,19175.0,19180.0,19175.0,19180.0,23,9,19175,17,19180,13
2017-01-03 08:43:00,08:43:07,08:43:19,3543,3560,19175.0,13,19180.0,13,19180.0,19180.0,19180.0,19180.0,11,-5,19180,3,19185,28
2017-01-03 08:44:00,08:44:19,08:44:19,3573,3577,19180.0,17,19185.0,29,19180.0,19180.0,19180.0,19180.0,6,-6,19180,12,19185,12
2017-01-03 08:45:00,08:45:00,08:45:19,3581,3601,19180.0,16,19185.0,29,19180.0,19185.0,19180.0,19185.0,11,9,19185,3,19190,25
2017-01-03 08:46:00,08:46:05,08:46:19,3610,3648,19185.0,19,19190.0,25,19185.0,19185.0,19180.0,19180.0,38,-38,19180,9,19185,8
2017-01-03 08:47:00,08:47:01,08:47:01,3655,3655,19180.0,10,19185.0,9,19180.0,19180.0,19180.0,19180.0,1,-1,19180,9,19185,10
2017-01-03 08:48:00,08:48:06,08:48:48,3666,3680,19180.0,12,19185.0,9,19180.0,19180.0,19180.0,19180.0,12,-12,19180,2,19180,13
2017-01-03 08:49:00,08:49:20,08:49:46,3684,3700,19180.0,5,19185.0,15,19180.0,19180.0,19175.0,19175.0,20,-20,19175,2,19180,15
2017-01-03 08:50:00,08:50:00,08:50:50,3706,3731,19175.0,3,19180.0,16,19175.0,19175.0,19170.0,19175.0,11,-3,19170,15,19175,5
2017-01-03 08:51:00,08:51:00,08:51:00,0,0,0.0,0,0.0,0,19175.0,19175.0,19175.0,19175.0,0,0,0,0,0,0
2017-01-03 08:52:00,08:52:29,08:52:36,3741,3751,19170.0,19,19175.0,6,19175.0,19175.0,19175.0,19175.0,8,8,19175,3,19180,15
2017-01-03 08:53:00,08:53:07,08:53:07,3760,3764,19175.0,18,19180.0,13,19180.0,19180.0,19180.0,19180.0,13,13,19180,5,19185,14
2017-01-03 08:54:00,08:54:19,08:54:27,3777,3804,19180.0,21,19185.0,29,19180.0,19180.0,19175.0,19175.0,25,-25,19170,26,19175,2
2017-01-03 08:55:00,08:55:00,08:55:10,3816,3825,19170.0,12,19175.0,7,19170.0,19170.0,19170.0,19170.0,5,-5,19170,4,19175,9
2017-01-03 08:56:00,08:56:00,08:56:00,0,0,0.0,0,0.0,0,19170.0,19170.0,19170.0,19170.0,0,0,0,0,0,0
2017-01-03 08:57:00,08:57:02,08:57:59,3838,3863,19170.0,15,19175.0,5,19170.0,19175.0,19170.0,19175.0,19,-17,19170,7,19175,8
2017-01-03 08:58:00,08:58:32,08:58:32,3869,3869,19170.0,7,19175.0,7,19170.0,19170.0,19170.0,19170.0,1,-1,19170,8,19175,11
2017-01-03 08:59:00,08:59:00,08:59:00,0,0,0.0,0,0.0,0,19170.0,19170.0,19170.0,19170.0,0,0,0,0,0,0
2017-01-03 09:00:00,09:00:00,09:00:17,3883,3901,19170.0,15,19175.0,5,19170.0,19175.0,19170.0,19175.0,7,3,19175,3,19180,28
2017-01-03 09:01:00,09:01:13,09:01:40,3913,3954,19175.0,16,19180.0,27,19175.0,19180.0,19170.0,19180.0,34,-10,19175,3,19180,23
2017-01-03 09:02:00,09:02:19,09:02:39,3983,4001,19175.0,8,19180.0,22,19175.0,19175.0,19175.0,19175.0,9,-9,19170,13,19175,2
2017-01-03 09:03:00,09:03:19,09:03:19,4022,4024,19170.0,12,19175.0,21,19170.0,19170.0,19170.0,19170.0,3,-3,19170,1,19175,24
2017-01-03 09:04:00,09:04:19,09:04:51,4040,4052,19170.0,9,19175.0,22,19170.0,19170.0,19170.0,19170.0,5,-5,19170,9,19175,23
2017-01-03 09:05:00,09:05:00,09:05:23,4055,4088,19170.0,9,19175.0,23,19170.0,19170.0,19165.0,19170.0,20,-6,19170,5,19175,21
2017-01-03 09:06:00,09:06:10,09:06:19,4096,4106,19170.0,15,19175.0,21,19170.0,19175.0,19170.0,19170.0,9,-7,19170,7,19175,26
2017-01-03 09:07:00,09:07:10,09:07:41,4119,4131,19170.0,17,19175.0,28,19175.0,19175.0,19175.0,19175.0,7,7,19170,27,19175,20
2017-01-03 09:08:00,09:08:34,09:08:34,4142,4150,19170.0,32,19175.0,20,19175.0,19180.0,19175.0,19180.0,20,20,19175,10,19180,8
2017-01-03 09:09:00,09:09:05,09:09:44,4174,4252,19175.0,32,19180.0,24,19175.0,19175.0,19170.0,19170.0,62,-28,19170,19,19175,11
2017-01-03 09:10:00,09:10:00,09:10:19,4258,4268,19170.0,16,19175.0,11,19170.0,19175.0,19170.0,19175.0,5,3,19175,2,19180,31
2017-01-03 09:11:00,09:11:00,09:11:46,4284,4309,19175.0,17,19180.0,36,19175.0,19175.0,19175.0,19175.0,16,-16,19175,10,19180,27
2017-01-03 09:12:00,09:12:15,09:12:59,4314,4349,19175.0,13,19180.0,27,19175.0,19175.0,19175.0,19175.0,29,-21,19175,4,19180,19
2017-01-03 09:13:00,09:13:00,09:13:52,4353,4408,19175.0,5,19180.0,19,19175.0,19175.0,19165.0,19165.0,38,-32,19165,28,19170,7
2017-01-03 09:14:00,09:14:21,09:14:47,4414,4426,19165.0,33,19170.0,8,19165.0,19165.0,19165.0,19165.0,3,-3,19165,37,19170,5
2017-01-03 09:15:00,09:15:00,09:15:44,4433,4447,19165.0,37,19170.0,6,19165.0,19170.0,19165.0,19170.0,4,0,19170,2,19175,17
2017-01-03 09:16:00,09:16:00,09:16:56,4455,4485,19170.0,12,19175.0,15,19170.0,19170.0,19170.0,19170.0,15,-15,19170,13,19175,6
2017-01-03 09:17:00,09:17:40,09:17:49,4501,4511,19170.0,19,19175.0,6,19175.0,19180.0,19175.0,19180.0,10,10,19180,2,19185,22
2017-01-03 09:18:00,09:18:17,09:18:28,4523,4549,19180.0,6,19185.0,24,19180.0,19180.0,19175.0,19180.0,11,-3,19180,3,19185,23
2017-01-03 09:19:00,09:19:19,09:19:59,4576,4624,19180.0,5,19185.0,8,19180.0,19185.0,19175.0,19180.0,25,-13,19175,4,19180,13
2017-01-03 09:20:00,09:20:00,09:20:45,4627,4657,19175.0,6,19180.0,9,19175.0,19180.0,19175.0,19175.0,12,-7,19170,11,19180,8
2017-01-03 09:21:00,09:21:02,09:21:58,4664,4704,19175.0,2,19180.0,7,19175.0,19175.0,19165.0,19170.0,29,-24,19170,4,19175,19
2017-01-03 09:22:00,09:22:00,09:22:55,4707,4762,19170.0,4,19175.0,19,19170.0,19170.0,19165.0,19170.0,39,-25,19170,1,19175,14
2017-01-03 09:23:00,09:23:16,09:23:54,4770,4813,19170.0,10,19175.0,14,19175.0,19175.0,19165.0,19165.0,39,-25,19165,5,19170,7
2017-01-03 09:24:00,09:24:41,09:24:41,4823,4823,19165.0,10,19170.0,11,19170.0,19170.0,19170.0,19170.0,1,1,19165,11,19170,7
2017-01-03 09:25:00,09:25:00,09:25:17,4831,4836,19165.0,14,19170.0,9,19165.0,19165.0,19165.0,19165.0,4,-4,19165,9,19170,10
2017-01-03 09:26:00,09:26:18,09:26:18,4847,4847,19165.0,17,19170.0,6,19170.0,19170.0,19170.0,19170.0,1,1,19170,1,19175,18
2017-01-03 09:27:00,09:27:03,09:27:21,4859,4891,19170.0,21,19175.0,16,19170.0,19170.0,19170.0,19170.0,29,-27,19165,10,19170,7
2017-01-03 09:28:00,09:28:03,09:28:03,4902,4902,19165.0,18,19170.0,2,19170.0,19170.0,19170.0,19170.0,1,1,19165,17,19170,1
2017-01-03 09:29:00,09:29:03,09:29:03,4912,4913,19165.0,19,19170.0,10,19165.0,19165.0,19165.0,19165.0,2,-2,19165,17,19170,8
2017-01-03 09:30:00,09:30:00,09:30:00,4919,4919,19165.0,22,19170.0,8,19165.0,19165.0,19165.0,19165.0,2,-2,19165,20,19170,7
2017-01-03 09:31:00,09:31:00,09:31:00,0,0,0.0,0,0.0,0,19165.0,19165.0,19165.0,19165.0,0,0,0,0,0,0
2017-01-03 09:32:00,09:32:01,09:32:54,4943,4997,19165.0,31,19170.0,11,19170.0,19170.0,19165.0,19165.0,50,-44,19160,15,19165,11
2017-01-03 09:33:00,09:33:00,09:33:50,5005,5038,19160.0,10,19165.0,18,19160.0,19165.0,19160.0,19165.0,8,-6,19155,9,19165,21
2017-01-03 09:34:00,09:34:02,09:34:56,5042,5113,19160.0,11,19165.0,19,19160.0,19160.0,19145.0,19145.0,39,-29,19145,12,19150,22
2017-01-03 09:35:00,09:35:00,09:35:48,5116,5157,19145.0,14,19150.0,25,19145.0,19150.0,19145.0,19145.0,21,-13,19140,12,19145,13
2017-01-03 09:36:00,09:36:16,09:36:42,5175,5186,19140.0,12,19145.0,26,19140.0,19140.0,19140.0,19140.0,4,-4,19140,5,19145,25
2017-01-03 09:37:00,09:37:42,09:37:42,5197,5197,19140.0,20,19145.0,21,19140.0,19140.0,19140.0,19140.0,1,-1,19140,19,19145,19
2017-01-03 09:38:00,09:38:13,09:38:51,5205,5258,19140.0,23,19145.0,15,19140.0,19150.0,19140.0,19150.0,26,16,19150,11,19155,7
2017-01-03 09:39:00,09:39:16,09:39:25,5272,5280,19150.0,33,19155.0,5,19155.0,19160.0,19155.0,19160.0,3,1,19155,5,19160,12
2017-01-03 09:40:00,09:40:00,09:40:58,5291,5343,19155.0,13,19160.0,8,19155.0,19160.0,19155.0,19160.0,18,10,19160,54,19165,7
2017-01-03 09:41:00,09:41:11,09:41:47,5349,5364,19160.0,57,19165.0,8,19160.0,19160.0,19160.0,19160.0,4,-4,19160,55,19165,12
2017-01-03 09:42:00,09:42:11,09:42:11,5370,5370,19160.0,51,19165.0,12,19160.0,19160.0,19160.0,19160.0,1,-1,19160,50,19165,11
2017-01-03 09:43:00,09:43:00,09:43:00,0,0,0.0,0,0.0,0,19160.0,19160.0,19160.0,19160.0,0,0,0,0,0,0
2017-01-03 09:44:00,09:44:11,09:44:11,5388,5391,19160.0,57,19165.0,3,19165.0,19170.0,19165.0,19170.0,4,4,19165,9,19170,8
2017-01-03 09:45:00,09:45:00,09:45:58,5415,5443,19165.0,59,19170.0,8,19165.0,19170.0,19165.0,19165.0,27,-23,19165,46,19170,7
2017-01-03 09:46:00,09:46:00,09:46:00,0,0,0.0,0,0.0,0,19165.0,19165.0,19165.0,19165.0,0,0,0,0,0,0
2017-01-03 09:47:00,09:47:10,09:47:43,5456,5486,19165.0,66,19170.0,18,19170.0,19170.0,19165.0,19165.0,33,21,19165,57,19170,34
2017-01-03 09:48:00,09:48:16,09:48:16,5495,5495,19165.0,51,19170.0,35,19165.0,19165.0,19165.0,19165.0,1,-1,19165,59,19170,34
2017-01-03 09:49:00,09:49:03,09:49:45,5504,5549,19165.0,64,19170.0,29,19170.0,19170.0,19165.0,19170.0,30,20,19165,60,19170,11
2017-01-03 09:50:00,09:50:00,09:50:58,5554,5574,19165.0,60,19170.0,12,19165.0,19170.0,19165.0,19170.0,8,4,19170,15,19170,2
2017-01-03 09:51:00,09:51:00,09:51:47,5576,5652,19165.0,59,19170.0,2,19170.0,19175.0,19170.0,19175.0,74,18,19175,51,19180,27
2017-01-03 09:52:00,09:52:05,09:52:55,5659,5781,19175.0,50,19180.0,27,19180.0,19180.0,19175.0,19175.0,150,132,19175,50,19180,11
2017-01-03 09:53:00,09:53:42,09:53:42,5788,5788,19175.0,48,19180.0,18,19175.0,19175.0,19175.0,19175.0,1,-1,19175,47,19180,19
2017-01-03 09:54:00,09:54:11,09:54:27,5798,5807,19175.0,45,19180.0,39,19175.0,19175.0,19175.0,19175.0,3,-3,19175,44,19180,35
2017-01-03 09:55:00,09:55:00,09:55:36,5810,5814,19175.0,44,19180.0,35,19175.0,19180.0,19175.0,19180.0,3,-1,19175,40,19180,34
2017-01-03 09:56:00,09:56:17,09:56:30,5826,5835,19175.0,43,19180.0,34,19180.0,19180.0,19180.0,19180.0,5,5,19175,47,19180,13
2017-01-03 09:57:00,09:57:03,09:57:15,5841,5886,19175.0,45,19180.0,15,19180.0,19185.0,19180.0,19180.0,28,14,19180,15,19185,30
2017-01-03 09:58:00,09:58:11,09:58:42,5900,5911,19180.0,17,19185.0,28,19185.0,19185.0,19180.0,19180.0,3,-1,19180,8,19185,28
2017-01-03 09:59:00,09:59:20,09:59:56,5917,5939,19180.0,4,19185.0,28,19180.0,19180.0,19175.0,19175.0,6,-6,19175,6,19180,20
2017-01-03 10:00:00,10:00:00,10:00:35,5942,5977,19175.0,6,19180.0,20,19175.0,19175.0,19160.0,19160.0,9,-6,19155,15,19160,12
2017-01-03 10:01:00,10:01:48,10:01:48,5995,5995,19155.0,20,19160.0,9,19160.0,19160.0,19160.0,19160.0,2,2,19155,24,19160,3
2017-01-03 10:02:00,10:02:02,10:02:34,5998,6007,19155.0,24,19160.0,3,19155.0,19155.0,19155.0,19155.0,6,-6,19150,7,19155,13
2017-01-03 10:03:00,10:03:18,10:03:54,6015,6031,19150.0,8,19155.0,15,19150.0,19155.0,19150.0,19150.0,6,-4,19150,4,19155,14
2017-01-03 10:04:00,10:04:43,10:04:54,6039,6049,19150.0,11,19155.0,13,19150.0,19155.0,19150.0,19155.0,5,1,19155,11,19160,20
2017-01-03 10:05:00,10:05:00,10:05:00,6053,6053,19155.0,12,19160.0,20,19155.0,19155.0,19155.0,19155.0,1,-1,19155,11,19160,17
2017-01-03 10:06:00,10:06:08,10:06:47,6066,6086,19155.0,21,19160.0,10,19160.0,19170.0,19160.0,19165.0,13,11,19165,12,19170,6
2017-01-03 10:07:00,10:07:01,10:07:30,6094,6110,19165.0,16,19170.0,1,19170.0,19175.0,19170.0,19170.0,6,0,19165,9,19170,10
2017-01-03 10:08:00,10:08:33,10:08:59,6114,6118,19165.0,9,19170.0,12,19170.0,19170.0,19170.0,19170.0,2,2,19165,17,19170,5
2017-01-03 10:09:00,10:09:00,10:09:54,6119,6185,19165.0,10,19170.0,13,19170.0,19170.0,19165.0,19165.0,31,-13,19165,16,19170,10
2017-01-03 10:10:00,10:10:00,10:10:56,6187,6207,19165.0,16,19170.0,9,19165.0,19165.0,19165.0,19165.0,10,-10,19165,10,19170,8
2017-01-03 10:11:00,10:11:16,10:11:57,6213,6235,19165.0,24,19170.0,8,19165.0,19165.0,19165.0,19165.0,10,-10,19165,17,19170,9
2017-01-03 10:12:00,10:12:17,10:12:58,6241,6257,19165.0,16,19170.0,9,19165.0,19165.0,19165.0,19165.0,8,-8,19165,9,19170,6
2017-01-03 10:13:00,10:13:01,10:13:59,6260,6338,19165.0,10,19170.0,11,19165.0,19170.0,19165.0,19165.0,50,-10,19165,5,19170,16
2017-01-03 10:14:00,10:14:09,10:14:37,6346,6358,19165.0,15,19170.0,14,19165.0,19165.0,19165.0,19165.0,5,-5,19165,13,19170,10
2017-01-03 10:15:00,10:15:00,10:15:49,6362,6380,19165.0,16,19170.0,13,19165.0,19165.0,19165.0,19165.0,4,-4,19165,14,19170,10
2017-01-03 10:16:00,10:16:00,10:16:39,6386,6401,19165.0,21,19170.0,10,19165.0,19165.0,19165.0,19165.0,6,-6,19165,6,19170,13
2017-01-03 10:17:00,10:17:02,10:17:59,6405,6437,19165.0,6,19170.0,14,19165.0,19170.0,19165.0,19170.0,9,1,19170,9,19175,41
2017-01-03 10:18:00,10:18:15,10:18:53,6441,6451,19170.0,12,19175.0,42,19175.0,19175.0,19170.0,19170.0,4,-2,19170,10,19175,29
2017-01-03 10:19:00,10:19:13,10:19:36,6453,6486,19170.0,10,19175.0,41,19170.0,19175.0,19170.0,19175.0,19,5,19170,20,19175,28
2017-01-03 10:20:00,10:20:00,10:20:35,6492,6540,19170.0,20,19175.0,23,19175.0,19175.0,19170.0,19170.0,22,-16,19170,23,19175,25
2017-01-03 10:21:00,10:21:08,10:21:15,6551,6554,19170.0,21,19175.0,26,19170.0,19170.0,19170.0,19170.0,2,-2,19170,17,19175,28
2017-01-03 10:22:00,10:22:06,10:22:56,6567,6590,19170.0,12,19175.0,33,19170.0,19175.0,19170.0,19170.0,6,-4,19170,11,19175,32
2017-01-03 10:23:00,10:23:06,10:23:57,6593,6620,19170.0,9,19175.0,30,19170.0,19170.0,19165.0,19165.0,9,-9,19165,20,19170,17
2017-01-03 10:24:00,10:24:07,10:24:27,6622,6624,19165.0,20,19170.0,15,19165.0,19165.0,19165.0,19165.0,2,-2,19165,16,19170,17
2017-01-03 10:25:00,10:25:00,10:25:00,6631,6631,19165.0,13,19170.0,18,19165.0,19165.0,19165.0,19165.0,1,-1,19165,8,19170,20
2017-01-03 10:26:00,10:26:13,10:26:19,6642,6658,19165.0,19,19170.0,14,19170.0,19170.0,19170.0,19170.0,10,6,19170,14,19175,27
2017-01-03 10:27:00,10:27:17,10:27:47,6664,6672,19170.0,16,19175.0,27,19175.0,19175.0,19175.0,19175.0,2,2,19170,21,19175,20
2017-01-03 10:28:00,10:28:05,10:28:33,6676,6680,19170.0,22,19175.0,19,19170.0,19170.0,19170.0,19170.0,2,-2,19170,20,19175,17
2017-01-03 10:29:00,10:29:00,10:29:00,0,0,0.0,0,0.0,0,19170.0,19170.0,19170.0,19170.0,0,0,0,0,0,0
2017-01-03 10:30:00,10:30:00,10:30:50,6684,6755,19170.0,20,19175.0,19,19175.0,19175.0,19160.0,19160.0,53,-25,19160,10,19165,25
2017-01-03 10:31:00,10:31:00,10:31:39,6763,6781,19160.0,14,19165.0,23,19165.0,19165.0,19160.0,19165.0,9,5,19160,8,19165,22
2017-01-03 10:32:00,10:32:14,10:32:14,6789,6789,19160.0,8,19165.0,24,19165.0,19165.0,19165.0,19165.0,1,1,19160,10,19165,23
2017-01-03 10:33:00,10:33:51,10:33:51,6811,6811,19160.0,13,19165.0,21,19160.0,19160.0,19160.0,19160.0,1,-1,19160,18,19165,20
2017-01-03 10:34:00,10:34:28,10:34:34,6819,6832,19160.0,24,19165.0,19,19160.0,19160.0,19160.0,19160.0,5,-5,19160,20,19165,22
2017-01-03 10:35:00,10:35:00,10:35:58,6837,6910,19160.0,21,19165.0,23,19160.0,19160.0,19145.0,19145.0,57,-39,19145,4,19150,20
2017-01-03 10:36:00,10:36:00,10:36:55,6918,7123,19145.0,22,19150.0,9,19150.0,19160.0,19140.0,19150.0,163,33,19150,1,19155,14
2017-01-03 10:37:00,10:37:48,10:37:48,7133,7133,19150.0,5,19155.0,15,19150.0,19150.0,19150.0,19150.0,1,-1,19150,7,19155,14
2017-01-03 10:38:00,10:38:04,10:38:51,7141,7164,19150.0,10,19155.0,9,19155.0,19160.0,19155.0,19155.0,9,-5,19155,12,19160,5
2017-01-03 10:39:00,10:39:16,10:39:44,7172,7182,19155.0,12,19160.0,7,19155.0,19160.0,19155.0,19160.0,4,-2,19155,13,19160,1
2017-01-03 10:40:00,10:40:00,10:40:23,7187,7192,19155.0,15,19160.0,2,19155.0,19155.0,19155.0,19155.0,3,-3,19155,9,19160,7
2017-01-03 10:41:00,10:41:00,10:41:00,0,0,0.0,0,0.0,0,19155.0,19155.0,19155.0,19155.0,0,0,0,0,0,0
2017-01-03 10:42:00,10:42:00,10:42:00,0,0,0.0,0,0.0,0,19155.0,19155.0,19155.0,19155.0,0,0,0,0,0,0
2017-01-03 10:43:00,10:43:00,10:43:00,0,0,0.0,0,0.0,0,19155.0,19155.0,19155.0,19155.0,0,0,0,0,0,0
2017-01-03 10:44:00,10:44:19,10:44:28,7206,7256,19155.0,20,19160.0,5,19160.0,19170.0,19160.0,19170.0,33,19,19165,6,19170,11
2017-01-03 10:45:00,10:45:00,10:45:54,7269,7273,19165.0,5,19170.0,12,19165.0,19165.0,19165.0,19165.0,2,-2,19165,8,19170,14
2017-01-03 10:46:00,10:46:00,10:46:00,0,0,0.0,0,0.0,0,19165.0,19165.0,19165.0,19165.0,0,0,0,0,0,0
2017-01-03 10:47:00,10:47:23,10:47:23,7277,7285,19165.0,7,19170.0,14,19165.0,19165.0,19160.0,19160.0,5,-3,19160,4,19165,10
2017-01-03 10:48:00,10:48:00,10:48:00,0,0,0.0,0,0.0,0,19160.0,19160.0,19160.0,19160.0,0,0,0,0,0,0
2017-01-03 10:49:00,10:49:00,10:49:00,0,0,0.0,0,0.0,0,19160.0,19160.0,19160.0,19160.0,0,0,0,0,0,0
2017-01-03 10:50:00,10:50:00,10:50:42,7295,7302,19160.0,5,19165.0,10,19160.0,19160.0,19160.0,19160.0,2,-2,19160,4,19165,9
2017-01-03 10:51:00,10:51:01,10:51:58,7305,7356,19160.0,7,19165.0,10,19160.0,19170.0,19160.0,19165.0,45,-19,19165,6,19170,18
2017-01-03 10:52:00,10:52:19,10:52:56,7361,7386,19165.0,5,19170.0,19,19165.0,19165.0,19160.0,19165.0,12,-2,19160,14,19170,11
2017-01-03 10:53:00,10:53:57,10:53:57,7397,7397,19165.0,13,19170.0,1,19170.0,19170.0,19170.0,19170.0,1,1,19170,6,19175,7
2017-01-03 10:54:00,10:54:07,10:54:22,7401,7416,19170.0,4,19175.0,7,19175.0,19175.0,19170.0,19175.0,13,-5,19170,6,19175,8
2017-01-03 10:55:00,10:55:00,10:55:32,7420,7431,19170.0,6,19175.0,9,19170.0,19175.0,19170.0,19170.0,5,-3,19170,4,19175,11
2017-01-03 10:56:00,10:56:00,10:56:00,0,0,0.0,0,0.0,0,19170.0,19170.0,19170.0,19170.0,0,0,0,0,0,0
2017-01-03 10:57:00,10:57:00,10:57:00,0,0,0.0,0,0.0,0,19170.0,19170.0,19170.0,19170.0,0,0,0,0,0,0
2017-01-03 10:58:00,10:58:00,10:58:00,0,0,0.0,0,0.0,0,19170.0,19170.0,19170.0,19170.0,0,0,0,0,0,0
2017-01-03 10:59:00,10:59:00,10:59:00,0,0,0.0,0,0.0,0,19170.0,19170.0,19170.0,19170.0,0,0,0,0,0,0
2017-01-03 11:00:00,11:00:00,11:00:59,7434,7462,19170.0,7,19175.0,10,19170.0,19170.0,19165.0,19165.0,17,-13,19165,3,19170,7
2017-01-03 11:01:00,11:01:49,11:01:59,7468,7472,19165.0,3,19170.0,8,19165.0,19170.0,19165.0,19170.0,2,0,19165,6,19170,7
2017-01-03 11:02:00,11:02:12,11:02:12,7476,7476,19165.0,4,19170.0,7,19165.0,19165.0,19165.0,19165.0,1,-1,19165,6,19170,9
2017-01-03 11:03:00,11:03:00,11:03:00,0,0,0.0,0,0.0,0,19165.0,19165.0,19165.0,19165.0,0,0,0,0,0,0
2017-01-03 11:04:00,11:04:17,11:04:33,7481,7495,19165.0,5,19170.0,9,19170.0,19175.0,19170.0,19170.0,8,4,19170,5,19175,3
2017-01-03 11:05:00,11:05:00,11:05:57,7503,7519,19170.0,11,19175.0,5,19170.0,19175.0,19170.0,19175.0,7,-1,19170,8,19175,8
2017-01-03 11:06:00,11:06:00,11:06:00,0,0,0.0,0,0.0,0,19175.0,19175.0,19175.0,19175.0,0,0,0,0,0,0
2017-01-03 11:07:00,11:07:00,11:07:00,0,0,0.0,0,0.0,0,19175.0,19175.0,19175.0,19175.0,0,0,0,0,0,0
2017-01-03 11:08:00,11:08:07,11:08:07,7527,7527,19170.0,9,19175.0,6,19175.0,19175.0,19175.0,19175.0,1,1,19170,69,19175,1
2017-01-03 11:09:00,11:09:29,11:09:29,7533,7533,19170.0,70,19175.0,1,19175.0,19175.0,19175.0,19175.0,1,1,19175,7,19180,19
2017-01-03 11:10:00,11:10:00,11:10:18,7543,7551,19175.0,9,19180.0,21,19175.0,19175.0,19175.0,19175.0,4,-4,19175,6,19180,21
2017-01-03 11:11:00,11:11:12,11:11:46,7557,7576,19175.0,4,19180.0,21,19175.0,19175.0,19175.0,19175.0,12,-2,19170,69,19175,2
2017-01-03 11:12:00,11:12:02,11:12:02,7582,7583,19170.0,13,19175.0,5,19175.0,19175.0,19175.0,19175.0,2,2,19170,69,19175,2
2017-01-03 11:13:00,11:13:07,11:13:30,7592,7599,19170.0,71,19175.0,2,19175.0,19175.0,19175.0,19175.0,11,11,19175,2,19180,21
2017-01-03 11:14:00,11:14:39,11:14:39,7605,7605,19175.0,7,19180.0,21,19175.0,19175.0,19175.0,19175.0,2,-2,19175,2,19180,22
2017-01-03 11:15:00,11:15:00,11:15:39,7609,7618,19175.0,3,19180.0,22,19175.0,19175.0,19175.0,19175.0,5,-5,19175,1,19180,22
2017-01-03 11:16:00,11:16:37,11:16:37,7624,7627,19175.0,6,19180.0,23,19180.0,19180.0,19180.0,19180.0,3,3,19175,8,19180,19
2017-01-03 11:17:00,11:17:53,11:17:53,7640,7641,19175.0,8,19180.0,26,19175.0,19175.0,19175.0,19175.0,2,-2,19175,6,19180,25
2017-01-03 11:18:00,11:18:00,11:18:00,0,0,0.0,0,0.0,0,19175.0,19175.0,19175.0,19175.0,0,0,0,0,0,0
2017-01-03 11:19:00,11:19:00,11:19:00,0,0,0.0,0,0.0,0,19175.0,19175.0,19175.0,19175.0,0,0,0,0,0,0
2017-01-03 11:20:00,11:20:00,11:20:18,7649,7653,19175.0,7,19180.0,25,19175.0,19175.0,19175.0,19175.0,4,-4,19175,8,19180,26
2017-01-03 11:21:00,11:21:00,11:21:00,0,0,0.0,0,0.0,0,19175.0,19175.0,19175.0,19175.0,0,0,0,0,0,0
2017-01-03 11:22:00,11:22:00,11:22:00,0,0,0.0,0,0.0,0,19175.0,19175.0,19175.0,19175.0,0,0,0,0,0,0
2017-01-03 11:23:00,11:23:20,11:23:56,7657,7682,19175.0,6,19180.0,26,19175.0,19175.0,19175.0,19175.0,12,-5,19175,1,19180,20
2017-01-03 11:24:00,11:24:49,11:24:49,7685,7685,19175.0,1,19180.0,20,19175.0,19175.0,19175.0,19175.0,1,-1,19170,75,19175,1
2017-01-03 11:25:00,11:25:00,11:25:10,7688,7694,19170.0,76,19180.0,20,19170.0,19175.0,19170.0,19175.0,4,0,19175,5,19180,18
2017-01-03 11:26:00,11:26:00,11:26:00,0,0,0.0,0,0.0,0,19175.0,19175.0,19175.0,19175.0,0,0,0,0,0,0
2017-01-03 11:27:00,11:27:00,11:27:00,0,0,0.0,0,0.0,0,19175.0,19175.0,19175.0,19175.0,0,0,0,0,0,0
2017-01-03 11:28:00,11:28:00,11:28:00,0,0,0.0,0,0.0,0,19175.0,19175.0,19175.0,19175.0,0,0,0,0,0,0
2017-01-03 11:29:00,11:29:00,11:29:00,0,0,0.0,0,0.0,0,19175.0,19175.0,19175.0,19175.0,0,0,0,0,0,0
2017-01-03 11:30:00,11:30:00,11:30:58,7705,7750,19175.0,7,19180.0,21,19175.0,19180.0,19175.0,19180.0,38,18,19175,7,19180,18
2017-01-03 11:31:00,11:31:00,11:31:00,0,0,0.0,0,0.0,0,19180.0,19180.0,19180.0,19180.0,0,0,0,0,0,0
2017-01-03 11:32:00,11:32:00,11:32:00,0,0,0.0,0,0.0,0,19180.0,19180.0,19180.0,19180.0,0,0,0,0,0,0
2017-01-03 11:33:00,11:33:00,11:33:00,0,0,0.0,0,0.0,0,19180.0,19180.0,19180.0,19180.0,0,0,0,0,0,0
2017-01-03 11:34:00,11:34:00,11:34:00,0,0,0.0,0,0.0,0,19180.0,19180.0,19180.0,19180.0,0,0,0,0,0,0
2017-01-03 11:35:00,11:35:00,11:35:56,7757,7762,19175.0,6,19180.0,23,19175.0,19180.0,19175.0,19180.0,4,-2,19175,5,19180,21
2017-01-03 11:36:00,11:36:00,11:36:00,0,0,0.0,0,0.0,0,19180.0,19180.0,19180.0,19180.0,0,0,0,0,0,0
2017-01-03 11:37:00,11:37:00,11:37:00,0,0,0.0,0,0.0,0,19180.0,19180.0,19180.0,19180.0,0,0,0,0,0,0
2017-01-03 11:38:00,11:38:00,11:38:00,0,0,0.0,0,0.0,0,19180.0,19180.0,19180.0,19180.0,0,0,0,0,0,0
2017-01-03 11:39:00,11:39:01,11:39:53,7773,7778,19175.0,14,19180.0,18,19175.0,19180.0,19175.0,19180.0,4,-2,19175,13,19180,18
2017-01-03 11:40:00,11:40:00,11:40:00,7781,7782,19175.0,13,19180.0,18,19175.0,19175.0,19175.0,19175.0,2,-2,19175,11,19180,20
2017-01-03 11:41:00,11:41:00,11:41:00,0,0,0.0,0,0.0,0,19175.0,19175.0,19175.0,19175.0,0,0,0,0,0,0
2017-01-03 11:42:00,11:42:58,11:42:58,7791,7792,19175.0,16,19180.0,18,19175.0,19180.0,19175.0,19180.0,2,0,19175,17,19180,17
2017-01-03 11:43:00,11:43:13,11:43:39,7796,7843,19175.0,16,19180.0,17,19180.0,19180.0,19180.0,19180.0,44,30,19175,15,19185,44
2017-01-03 11:44:00,11:44:00,11:44:00,0,0,0.0,0,0.0,0,19180.0,19180.0,19180.0,19180.0,0,0,0,0,0,0
2017-01-03 11:45:00,11:45:00,11:45:22,7853,7863,19175.0,14,19180.0,9,19175.0,19180.0,19175.0,19180.0,5,-1,19175,18,19180,16
2017-01-03 11:46:00,11:46:00,11:46:00,0,0,0.0,0,0.0,0,19180.0,19180.0,19180.0,19180.0,0,0,0,0,0,0
2017-01-03 11:47:00,11:47:00,11:47:00,0,0,0.0,0,0.0,0,19180.0,19180.0,19180.0,19180.0,0,0,0,0,0,0
2017-01-03 11:48:00,11:48:00,11:48:00,0,0,0.0,0,0.0,0,19180.0,19180.0,19180.0,19180.0,0,0,0,0,0,0
2017-01-03 11:49:00,11:49:53,11:49:53,7878,7878,19175.0,22,19180.0,1,19180.0,19180.0,19180.0,19180.0,1,1,19180,6,19185,29
2017-01-03 11:50:00,11:50:00,11:50:47,7884,7902,19180.0,13,19185.0,8,19180.0,19185.0,19180.0,19185.0,10,2,19185,2,19190,48
2017-01-03 11:51:00,11:51:55,11:51:55,7911,7911,19185.0,9,19190.0,49,19185.0,19185.0,19185.0,19185.0,1,-1,19185,5,19190,61
2017-01-03 11:52:00,11:52:00,11:52:00,0,0,0.0,0,0.0,0,19185.0,19185.0,19185.0,19185.0,0,0,0,0,0,0
2017-01-03 11:53:00,11:53:17,11:53:17,7929,7937,19185.0,9,19190.0,43,19185.0,19185.0,19185.0,19185.0,9,-9,19180,14,19185,10
2017-01-03 11:54:00,11:54:22,11:54:27,7957,7974,19180.0,7,19185.0,43,19180.0,19180.0,19180.0,19180.0,13,-11,19175,21,19185,40
2017-01-03 11:55:00,11:55:00,11:55:00,7985,7985,19180.0,9,19185.0,19,19180.0,19180.0,19180.0,19180.0,1,-1,19180,8,19185,20
2017-01-03 11:56:00,11:56:57,11:56:57,7995,7995,19180.0,13,19185.0,16,19180.0,19180.0,19180.0,19180.0,1,-1,19180,12,19185,17
2017-01-03 11:57:00,11:57:00,11:57:00,0,0,0.0,0,0.0,0,19180.0,19180.0,19180.0,19180.0,0,0,0,0,0,0
2017-01-03 11:58:00,11:58:00,11:58:00,0,0,0.0,0,0.0,0,19180.0,19180.0,19180.0,19180.0,0,0,0,0,0,0
2017-01-03 11:59:00,11:59:04,11:59:04,8005,8010,19180.0,23,19185.0,11,19185.0,19185.0,19185.0,19185.0,10,10,19185,7,19190,51
2017-01-03 12:00:00,12:00:00,12:00:58,8029,8090,19185.0,15,19190.0,40,19190.0,19195.0,19185.0,19195.0,48,44,19190,13,19195,30
2017-01-03 12:01:00,12:01:46,12:01:46,8094,8095,19190.0,12,19195.0,30,19195.0,19195.0,19195.0,19195.0,4,4,19190,19,19195,25
2017-01-03 12:02:00,12:02:03,12:02:03,8098,8098,19190.0,19,19195.0,25,19190.0,19190.0,19190.0,19190.0,1,-1,19190,20,19195,26
2017-01-03 12:03:00,12:03:00,12:03:00,0,0,0.0,0,0.0,0,19190.0,19190.0,19190.0,19190.0,0,0,0,0,0,0
2017-01-03 12:04:00,12:04:03,12:04:35,8110,8143,19190.0,14,19195.0,26,19195.0,19200.0,19195.0,19200.0,51,51,19195,7,19200,19
2017-01-03 12:05:00,12:05:00,12:05:00,8151,8151,19195.0,11,19200.0,19,19195.0,19195.0,19195.0,19195.0,1,-1,19195,10,19200,20
2017-01-03 12:06:00,12:06:20,12:06:52,8167,8185,19195.0,24,19200.0,34,19195.0,19195.0,19190.0,19190.0,26,-26,19190,9,19195,15
2017-01-03 12:07:00,12:07:24,12:07:31,8194,8203,19190.0,7,19195.0,38,19190.0,19190.0,19190.0,19190.0,6,-6,19185,18,19190,8
2017-01-03 12:08:00,12:08:00,12:08:00,0,0,0.0,0,0.0,0,19190.0,19190.0,19190.0,19190.0,0,0,0,0,0,0
2017-01-03 12:09:00,12:09:00,12:09:00,0,0,0.0,0,0.0,0,19190.0,19190.0,19190.0,19190.0,0,0,0,0,0,0
2017-01-03 12:10:00,12:10:00,12:10:17,8213,8220,19185.0,18,19190.0,8,19185.0,19185.0,19185.0,19185.0,5,-5,19185,13,19190,15
2017-01-03 12:11:00,12:11:43,12:11:56,8232,8234,19185.0,11,19190.0,18,19185.0,19190.0,19185.0,19190.0,2,0,19185,14,19190,17
2017-01-03 12:12:00,12:12:02,12:12:02,8237,8241,19185.0,14,19190.0,17,19190.0,19190.0,19190.0,19190.0,5,5,19185,19,19190,10
2017-01-03 12:13:00,12:13:32,12:13:32,8263,8263,19185.0,19,19190.0,10,19190.0,19190.0,19190.0,19190.0,1,1,19185,18,19190,9
2017-01-03 12:14:00,12:14:04,12:14:04,8265,8265,19185.0,19,19190.0,9,19190.0,19190.0,19190.0,19190.0,1,1,19185,18,19190,8
2017-01-03 12:15:00,12:15:00,12:15:00,8269,8269,19185.0,19,19190.0,8,19185.0,19185.0,19185.0,19185.0,1,-1,19185,18,19190,9
2017-01-03 12:16:00,12:16:00,12:16:00,0,0,0.0,0,0.0,0,19185.0,19185.0,19185.0,19185.0,0,0,0,0,0,0
2017-01-03 12:17:00,12:17:00,12:17:00,0,0,0.0,0,0.0,0,19185.0,19185.0,19185.0,19185.0,0,0,0,0,0,0
2017-01-03 12:18:00,12:18:28,12:18:28,8281,8293,19185.0,19,19190.0,15,19190.0,19190.0,19190.0,19190.0,15,15,19190,9,19195,29
2017-01-03 12:19:00,12:19:00,12:19:00,0,0,0.0,0,0.0,0,19190.0,19190.0,19190.0,19190.0,0,0,0,0,0,0
2017-01-03 12:20:00,12:20:00,12:20:00,8306,8306,19190.0,15,19195.0,28,19190.0,19190.0,19190.0,19190.0,2,-2,19190,11,19195,27
2017-01-03 12:21:00,12:21:00,12:21:00,0,0,0.0,0,0.0,0,19190.0,19190.0,19190.0,19190.0,0,0,0,0,0,0
2017-01-03 12:22:00,12:22:30,12:22:30,8313,8330,19190.0,17,19195.0,23,19190.0,19190.0,19190.0,19190.0,21,-21,19185,16,19190,17
2017-01-03 12:23:00,12:23:00,12:23:00,0,0,0.0,0,0.0,0,19190.0,19190.0,19190.0,19190.0,0,0,0,0,0,0
2017-01-03 12:24:00,12:24:29,12:24:50,8343,8348,19185.0,16,19190.0,18,19185.0,19185.0,19185.0,19185.0,3,-3,19185,10,19190,22
2017-01-03 12:25:00,12:25:00,12:25:52,8351,8366,19185.0,10,19190.0,22,19185.0,19190.0,19185.0,19190.0,6,-4,19185,14,19190,21
2017-01-03 12:26:00,12:26:00,12:26:51,8369,8386,19185.0,14,19190.0,21,19185.0,19185.0,19185.0,19185.0,9,-9,19185,10,19190,22
2017-01-03 12:27:00,12:27:11,12:27:51,8388,8528,19185.0,10,19190.0,23,19185.0,19200.0,19185.0,19195.0,178,28,19195,7,19200,30
2017-01-03 12:28:00,12:28:01,12:28:53,8535,8562,19195.0,7,19200.0,31,19195.0,19195.0,19190.0,19190.0,13,-9,19190,9,19195,14
2017-01-03 12:29:00,12:29:02,12:29:43,8565,8573,19190.0,9,19195.0,14,19190.0,19190.0,19190.0,19190.0,4,-4,19190,7,19195,15
2017-01-03 12:30:00,12:30:00,12:30:40,8576,8587,19190.0,6,19195.0,14,19190.0,19190.0,19190.0,19190.0,5,-5,19190,4,19195,11
2017-01-03 12:31:00,12:31:00,12:31:00,0,0,0.0,0,0.0,0,19190.0,19190.0,19190.0,19190.0,0,0,0,0,0,0
2017-01-03 12:32:00,12:32:00,12:32:00,0,0,0.0,0,0.0,0,19190.0,19190.0,19190.0,19190.0,0,0,0,0,0,0
2017-01-03 12:33:00,12:33:00,12:33:00,0,0,0.0,0,0.0,0,19190.0,19190.0,19190.0,19190.0,0,0,0,0,0,0
2017-01-03 12:34:00,12:34:46,12:34:46,8603,8603,19190.0,12,19195.0,17,19190.0,19190.0,19190.0,19190.0,1,-1,19190,13,19195,16
2017-01-03 12:35:00,12:35:00,12:35:00,8605,8606,19190.0,13,19195.0,17,19190.0,19190.0,19190.0,19190.0,2,-2,19190,11,19195,16
2017-01-03 12:36:00,12:36:05,12:36:05,8610,8610,19190.0,14,19195.0,17,19190.0,19190.0,19190.0,19190.0,1,-1,19190,13,19195,16
2017-01-03 12:37:00,12:37:20,12:37:24,8614,8617,19190.0,14,19195.0,16,19195.0,19195.0,19190.0,19190.0,3,-1,19190,12,19195,13
2017-01-03 12:38:00,12:38:33,12:38:41,8623,8627,19190.0,15,19195.0,10,19195.0,19195.0,19195.0,19195.0,2,2,19190,14,19195,9
2017-01-03 12:39:00,12:39:11,12:39:55,8632,8651,19190.0,14,19195.0,11,19195.0,19195.0,19195.0,19195.0,13,13,19195,2,19200,30
2017-01-03 12:40:00,12:40:00,12:40:00,8655,8655,19195.0,6,19200.0,30,19195.0,19195.0,19195.0,19195.0,2,-2,19195,2,19200,31
2017-01-03 12:41:00,12:41:00,12:41:00,0,0,0.0,0,0.0,0,19195.0,19195.0,19195.0,19195.0,0,0,0,0,0,0
2017-01-03 12:42:00,12:42:00,12:42:00,0,0,0.0,0,0.0,0,19195.0,19195.0,19195.0,19195.0,0,0,0,0,0,0
2017-01-03 12:43:00,12:43:00,12:43:00,0,0,0.0,0,0.0,0,19195.0,19195.0,19195.0,19195.0,0,0,0,0,0,0
2017-01-03 12:44:00,12:44:00,12:44:00,0,0,0.0,0,0.0,0,19195.0,19195.0,19195.0,19195.0,0,0,0,0,0,0
2017-01-03 12:45:00,12:45:00,12:45:19,8679,8712,19195.0,6,19200.0,36,19195.0,19195.0,19190.0,19195.0,19,-9,19195,1,19200,40
2017-01-03 12:46:00,12:46:10,12:46:40,8727,8760,19195.0,14,19200.0,33,19200.0,19200.0,19200.0,19200.0,32,32,19195,21,19200,4
2017-01-03 12:47:00,12:47:47,12:47:47,8768,8768,19195.0,21,19200.0,20,19195.0,19195.0,19195.0,19195.0,1,-1,19195,20,19200,22
2017-01-03 12:48:00,12:48:15,12:48:30,8774,8779,19195.0,13,19200.0,24,19200.0,19200.0,19200.0,19200.0,4,4,19195,20,19200,16
2017-01-03 12:49:00,12:49:04,12:49:26,8782,8823,19195.0,20,19200.0,16,19200.0,19205.0,19200.0,19200.0,36,14,19195,8,19200,9
2017-01-03 12:50:00,12:50:00,12:50:20,8836,8857,19195.0,19,19200.0,5,19195.0,19195.0,19195.0,19195.0,12,-6,19190,13,19195,4
2017-01-03 12:51:00,12:51:00,12:51:00,0,0,0.0,0,0.0,0,19195.0,19195.0,19195.0,19195.0,0,0,0,0,0,0
2017-01-03 12:52:00,12:52:16,12:52:16,8876,8876,19190.0,11,19195.0,8,19195.0,19195.0,19195.0,19195.0,1,1,19190,13,19195,6
2017-01-03 12:53:00,12:53:00,12:53:00,0,0,0.0,0,0.0,0,19195.0,19195.0,19195.0,19195.0,0,0,0,0,0,0
2017-01-03 12:54:00,12:54:00,12:54:00,0,0,0.0,0,0.0,0,19195.0,19195.0,19195.0,19195.0,0,0,0,0,0,0
2017-01-03 12:55:00,12:55:00,12:55:53,8886,8900,19190.0,13,19195.0,7,19190.0,19195.0,19190.0,19195.0,5,-1,19190,15,19200,24
2017-01-03 12:56:00,12:56:07,12:56:07,8906,8906,19195.0,10,19200.0,23,19200.0,19200.0,19200.0,19200.0,1,1,19195,9,19200,24
2017-01-03 12:57:00,12:57:00,12:57:00,0,0,0.0,0,0.0,0,19200.0,19200.0,19200.0,19200.0,0,0,0,0,0,0
2017-01-03 12:58:00,12:58:00,12:58:00,0,0,0.0,0,0.0,0,19200.0,19200.0,19200.0,19200.0,0,0,0,0,0,0
2017-01-03 12:59:00,12:59:00,12:59:05,8935,8954,19195.0,11,19200.0,23,19200.0,19200.0,19195.0,19195.0,21,-19,19190,14,19200,31
2017-01-03 13:00:00,13:00:00,13:00:00,8969,8969,19195.0,6,19200.0,30,19195.0,19195.0,19195.0,19195.0,1,-1,19195,7,19200,35
2017-01-03 13:01:00,13:01:36,13:01:36,8988,8988,19195.0,2,19200.0,42,19195.0,19195.0,19195.0,19195.0,1,-1,19195,1,19200,41
2017-01-03 13:02:00,13:02:01,13:02:24,8992,8995,19195.0,2,19200.0,41,19195.0,19195.0,19195.0,19195.0,3,-3,19190,22,19195,1
2017-01-03 13:03:00,13:03:00,13:03:00,0,0,0.0,0,0.0,0,19195.0,19195.0,19195.0,19195.0,0,0,0,0,0,0
2017-01-03 13:04:00,13:04:11,13:04:55,9013,9031,19190.0,26,19195.0,19,19195.0,19200.0,19195.0,19200.0,18,18,19195,22,19200,11
2017-01-03 13:05:00,13:05:00,13:05:21,9034,9086,19195.0,22,19200.0,11,19195.0,19210.0,19195.0,19205.0,64,50,19205,8,19210,14
2017-01-03 13:06:00,13:06:12,13:06:50,9105,9143,19205.0,32,19210.0,11,19210.0,19215.0,19210.0,19215.0,31,31,19210,20,19215,8
2017-01-03 13:07:00,13:07:38,13:07:38,9162,9162,19210.0,21,19215.0,12,19215.0,19215.0,19215.0,19215.0,1,1,19210,22,19215,11
2017-01-03 13:08:00,13:08:25,13:08:58,9173,9180,19210.0,21,19215.0,10,19215.0,19215.0,19215.0,19215.0,4,4,19210,19,19215,10
2017-01-03 13:09:00,13:09:04,13:09:56,9183,9228,19210.0,19,19215.0,10,19210.0,19220.0,19210.0,19220.0,31,27,19215,22,19220,1
2017-01-03 13:10:00,13:10:00,13:10:30,9231,9281,19215.0,21,19220.0,2,19215.0,19220.0,19215.0,19215.0,37,0,19215,8,19220,19
2017-01-03 13:11:00,13:11:19,13:11:19,9297,9297,19215.0,14,19220.0,14,19215.0,19215.0,19215.0,19215.0,2,-2,19215,12,19220,15
2017-01-03 13:12:00,13:12:19,13:12:19,9308,9308,19215.0,19,19220.0,11,19215.0,19215.0,19215.0,19215.0,3,-3,19215,13,19220,12
2017-01-03 13:13:00,13:13:19,13:13:47,9312,9380,19215.0,14,19220.0,12,19215.0,19220.0,19210.0,19210.0,67,-36,19205,12,19215,38
2017-01-03 13:14:00,13:14:00,13:14:00,0,0,0.0,0,0.0,0,19210.0,19210.0,19210.0,19210.0,0,0,0,0,0,0
2017-01-03 13:15:00,13:15:00,13:15:38,9391,9425,19205.0,10,19210.0,13,19205.0,19205.0,19200.0,19205.0,24,-10,19205,7,19210,13
2017-01-03 13:16:00,13:16:23,13:16:27,9436,9438,19205.0,8,19210.0,30,19205.0,19205.0,19205.0,19205.0,2,-2,19205,6,19210,29
2017-01-03 13:17:00,13:17:00,13:17:00,0,0,0.0,0,0.0,0,19205.0,19205.0,19205.0,19205.0,0,0,0,0,0,0
2017-01-03 13:18:00,13:18:27,13:18:27,9451,9451,19205.0,14,19210.0,29,19210.0,19210.0,19210.0,19210.0,1,1,19205,15,19210,28
2017-01-03 13:19:00,13:19:00,13:19:46,9454,9456,19205.0,15,19210.0,28,19210.0,19210.0,19210.0,19210.0,2,2,19205,16,19210,28
2017-01-03 13:20:00,13:20:00,13:20:49,9462,9475,19205.0,17,19210.0,30,19205.0,19210.0,19205.0,19210.0,8,4,19205,17,19210,22
2017-01-03 13:21:00,13:21:27,13:21:50,9479,9483,19205.0,18,19210.0,22,19210.0,19210.0,19210.0,19210.0,2,2,19205,13,19210,20
2017-01-03 13:22:00,13:22:26,13:22:55,9489,9491,19205.0,17,19210.0,20,19210.0,19210.0,19210.0,19210.0,2,2,19210,1,19210,16
2017-01-03 13:23:00,13:23:00,13:23:00,0,0,0.0,0,0.0,0,19210.0,19210.0,19210.0,19210.0,0,0,0,0,0,0
2017-01-03 13:24:00,13:24:39,13:24:43,9494,9506,19205.0,17,19210.0,18,19210.0,19210.0,19210.0,19210.0,7,5,19210,6,19210,5
2017-01-03 13:25:00,13:25:00,13:25:58,9509,9565,19210.0,8,19215.0,31,19210.0,19215.0,19205.0,19215.0,51,25,19210,11,19215,8
2017-01-03 13:26:00,13:26:22,13:26:23,9577,9583,19210.0,9,19215.0,18,19210.0,19210.0,19210.0,19210.0,4,-2,19205,8,19210,12
2017-01-03 13:27:00,13:27:32,13:27:45,9595,9610,19205.0,13,19210.0,6,19210.0,19210.0,19210.0,19210.0,9,5,19210,3,19215,40
2017-01-03 13:28:00,13:28:10,13:28:45,9613,9633,19210.0,3,19215.0,40,19210.0,19215.0,19210.0,19215.0,23,13,19215,9,19220,18
2017-01-03 13:29:00,13:29:02,13:29:03,9639,9648,19215.0,10,19220.0,20,19220.0,19220.0,19220.0,19220.0,8,8,19215,13,19220,12
2017-01-03 13:30:00,13:30:00,13:30:10,9655,9665,19215.0,11,19220.0,28,19215.0,19220.0,19215.0,19220.0,7,-5,19215,15,19220,26
2017-01-03 13:31:00,13:31:13,13:31:50,9674,9713,19215.0,19,19220.0,24,19220.0,19225.0,19220.0,19225.0,49,49,19220,21,19225,2
2017-01-03 13:32:00,13:32:11,13:32:35,9720,9739,19220.0,20,19225.0,6,19220.0,19220.0,19220.0,19220.0,16,-16,19215,10,19220,4
2017-01-03 13:33:00,13:33:32,13:33:32,9750,9757,19215.0,11,19220.0,10,19220.0,19220.0,19220.0,19220.0,10,10,19220,13,19225,27
2017-01-03 13:34:00,13:34:00,13:34:00,0,0,0.0,0,0.0,0,19220.0,19220.0,19220.0,19220.0,0,0,0,0,0,0
2017-01-03 13:35:00,13:35:00,13:35:30,9765,9770,19220.0,14,19225.0,27,19220.0,19220.0,19220.0,19220.0,3,-3,19220,12,19225,26
2017-01-03 13:36:00,13:36:34,13:36:47,9779,9803,19220.0,17,19225.0,27,19225.0,19230.0,19225.0,19230.0,38,38,19225,11,19230,12
2017-01-03 13:37:00,13:37:15,13:37:59,9823,10088,19225.0,13,19230.0,18,19225.0,19255.0,19225.0,19240.0,497,141,19240,2,19245,23
2017-01-03 13:38:00,13:38:12,13:38:45,10097,10189,19240.0,3,19245.0,23,19245.0,19245.0,19235.0,19240.0,95,1,19235,9,19240,32
2017-01-03 13:39:00,13:39:00,13:39:00,0,0,0.0,0,0.0,0,19240.0,19240.0,19240.0,19240.0,0,0,0,0,0,0
2017-01-03 13:40:00,13:40:00,13:40:00,10205,10217,19235.0,6,19240.0,40,19240.0,19240.0,19235.0,19235.0,14,10,19235,11,19240,28
2017-01-03 13:41:00,13:41:29,13:41:40,10236,10247,19235.0,5,19240.0,43,19235.0,19235.0,19230.0,19230.0,8,-8,19230,24,19235,30
2017-01-03 13:42:00,13:42:00,13:42:00,0,0,0.0,0,0.0,0,19230.0,19230.0,19230.0,19230.0,0,0,0,0,0,0
2017-01-03 13:43:00,13:43:11,13:43:53,10263,10283,19230.0,23,19235.0,31,19230.0,19235.0,19230.0,19230.0,12,-2,19230,21,19235,18
2017-01-03 13:44:00,13:44:15,13:44:51,10285,10316,19230.0,21,19235.0,19,19235.0,19240.0,19230.0,19240.0,22,20,19235,8,19240,27
2017-01-03 13:45:00,13:45:00,13:45:09,10326,10331,19235.0,2,19240.0,45,19235.0,19235.0,19235.0,19235.0,4,0,19230,15,19235,4
2017-01-03 13:46:00,13:46:33,13:46:43,10345,10353,19230.0,15,19235.0,7,19235.0,19235.0,19230.0,19230.0,4,-2,19230,8,19235,10
2017-01-03 13:47:00,13:47:00,13:47:00,0,0,0.0,0,0.0,0,19230.0,19230.0,19230.0,19230.0,0,0,0,0,0,0
2017-01-03 13:48:00,13:48:19,13:48:19,10385,10390,19230.0,6,19235.0,17,19230.0,19230.0,19230.0,19230.0,6,-6,19225,22,19230,1
2017-01-03 13:49:00,13:49:24,13:49:59,10400,10427,19225.0,20,19230.0,16,19225.0,19230.0,19225.0,19230.0,17,7,19230,12,19235,12
2017-01-03 13:50:00,13:50:00,13:50:37,10433,10448,19230.0,12,19235.0,18,19230.0,19230.0,19230.0,19230.0,10,-10,19225,20,19230,9
2017-01-03 13:51:00,13:51:26,13:51:26,10463,10463,19225.0,17,19230.0,19,19225.0,19225.0,19225.0,19225.0,1,-1,19225,13,19230,20
2017-01-03 13:52:00,13:52:07,13:52:40,10468,10481,19225.0,13,19230.0,22,19225.0,19225.0,19225.0,19225.0,6,-6,19225,3,19230,24
2017-01-03 13:53:00,13:53:21,13:53:55,10486,10507,19225.0,4,19230.0,25,19225.0,19225.0,19220.0,19220.0,25,-23,19215,19,19220,22
2017-01-03 13:54:00,13:54:03,13:54:56,10510,10533,19215.0,19,19220.0,22,19220.0,19220.0,19215.0,19215.0,5,-1,19210,21,19215,2
2017-01-03 13:55:00,13:55:00,13:55:43,10539,10561,19210.0,20,19215.0,5,19210.0,19215.0,19210.0,19210.0,15,-9,19210,9,19215,19
2017-01-03 13:56:00,13:56:16,13:56:34,10569,10579,19210.0,24,19215.0,13,19215.0,19215.0,19215.0,19215.0,6,6,19210,24,19215,2
2017-01-03 13:57:00,13:57:01,13:57:48,10583,10609,19210.0,24,19215.0,3,19215.0,19220.0,19215.0,19215.0,12,0,19210,21,19215,9
2017-01-03 13:58:00,13:58:19,13:58:19,10612,10612,19210.0,20,19215.0,10,19215.0,19215.0,19215.0,19215.0,1,1,19210,21,19215,9
2017-01-03 13:59:00,13:59:06,13:59:47,10619,10666,19210.0,6,19215.0,43,19210.0,19215.0,19210.0,19215.0,32,-20,19210,10,19215,17
2017-01-03 14:00:00,14:00:00,14:00:55,10671,10706,19210.0,14,19215.0,17,19215.0,19215.0,19205.0,19210.0,29,-25,19205,14,19210,23
2017-01-03 14:01:00,14:01:04,14:01:04,10712,10713,19205.0,13,19210.0,22,19205.0,19205.0,19205.0,19205.0,2,-2,19205,2,19210,28
2017-01-03 14:02:00,14:02:02,14:02:32,10737,10747,19205.0,6,19210.0,26,19210.0,19210.0,19205.0,19205.0,3,-1,19200,24,19205,9
2017-01-03 14:03:00,14:03:15,14:03:55,10765,10785,19200.0,20,19205.0,18,19205.0,19205.0,19200.0,19205.0,10,-6,19200,9,19205,21
2017-01-03 14:04:00,14:04:26,14:04:26,10794,10804,19200.0,12,19205.0,19,19200.0,19200.0,19200.0,19200.0,12,-12,19195,17,19200,9
2017-01-03 14:05:00,14:05:01,14:05:36,10819,10846,19195.0,16,19200.0,15,19195.0,19205.0,19195.0,19205.0,19,9,19200,11,19205,12
2017-01-03 14:06:00,14:06:29,14:06:48,10862,10881,19200.0,21,19205.0,7,19205.0,19205.0,19205.0,19205.0,7,7,19200,14,19205,7
2017-01-03 14:07:00,14:07:20,14:07:20,10886,10893,19200.0,13,19205.0,9,19205.0,19205.0,19205.0,19205.0,9,9,19200,14,19205,11
2017-01-03 14:08:00,14:08:49,14:08:49,10907,10907,19200.0,17,19205.0,10,19205.0,19205.0,19205.0,19205.0,1,1,19200,15,19205,9
2017-01-03 14:09:00,14:09:00,14:09:58,10909,10931,19200.0,17,19205.0,9,19205.0,19210.0,19205.0,19210.0,19,19,19205,17,19210,14
