,ST,ET,sidx,eidx,bB,bBS,bA,bAS,O,H,L,C,V,OF,eB,eBS,eA,eAS
2017-02-08 08:00:00,08:00:00,08:00:59,1963,2292,18915.0,68,18920.0,26,18915.0,18930.0,18915.0,18930.0,334,0,18925,40,18930,21
2017-02-08 08:01:00,08:01:00,08:01:57,2293,2547,18925.0,41,18930.0,19,18930.0,18945.0,18930.0,18945.0,213,209,18945,25,18950,45
2017-02-08 08:02:00,08:02:00,08:02:55,2553,2888,18945.0,40,18950.0,45,18945.0,18950.0,18945.0,18950.0,375,56,18945,25,18950,41
2017-02-08 08:03:00,08:03:05,08:03:55,2906,3043,18945.0,16,18950.0,49,18950.0,18950.0,18940.0,18940.0,78,-44,18940,19,18945,53
2017-02-08 08:04:00,08:04:19,08:04:59,3066,3209,18940.0,19,18945.0,58,18940.0,18950.0,18940.0,18950.0,111,95,18945,30,18950,5
2017-02-08 08:05:00,08:05:13,08:05:50,3233,3328,18945.0,38,18950.0,40,18950.0,18950.0,18945.0,18945.0,87,29,18940,37,18945,24
2017-02-08 08:06:00,08:06:16,08:06:53,3340,3503,18940.0,36,18945.0,30,18945.0,18945.0,18940.0,18940.0,195,-75,18935,72,18940,25
2017-02-08 08:07:00,08:07:08,08:07:49,3519,3600,18935.0,65,18940.0,39,18935.0,18935.0,18930.0,18935.0,115,-11,18935,26,18940,39
2017-02-08 08:08:00,08:08:10,08:08:46,3615,3735,18935.0,40,18940.0,41,18940.0,18940.0,18935.0,18940.0,136,34,18935,39,18940,11
2017-02-08 08:09:00,08:09:07,08:09:49,3753,3887,18935.0,42,18940.0,24,18940.0,18950.0,18940.0,18950.0,147,86,18945,38,18950,29
2017-02-08 08:10:00,08:10:13,08:10:44,3918,3984,18945.0,28,18950.0,51,18950.0,18950.0,18945.0,18945.0,76,-68,18940,39,18945,23
2017-02-08 08:11:00,08:11:13,08:11:50,4020,4079,18940.0,18,18945.0,53,18945.0,18945.0,18940.0,18940.0,23,19,18940,34,18945,39
2017-02-08 08:12:00,08:12:24,08:12:58,4105,4208,18940.0,42,18945.0,43,18940.0,18950.0,18940.0,18950.0,78,68,18945,38,18950,27
2017-02-08 08:13:00,08:13:14,08:13:53,4219,4335,18945.0,38,18950.0,30,18945.0,18950.0,18940.0,18945.0,153,-17,18940,43,18945,21
2017-02-08 08:14:00,08:14:04,08:14:47,4351,4395,18940.0,40,18945.0,47,18940.0,18940.0,18940.0,18940.0,11,-11,18940,29,18945,42
2017-02-08 08:15:00,08:15:06,08:15:57,4412,4648,18940.0,34,18945.0,40,18945.0,18955.0,18940.0,18950.0,235,87,18950,26,18955,41
2017-02-08 08:16:00,08:16:00,08:16:31,4652,4733,18950.0,26,18955.0,42,18955.0,18955.0,18945.0,18945.0,79,1,18945,13,18950,41
2017-02-08 08:17:00,08:17:02,08:17:52,4765,4890,18945.0,47,18950.0,21,18950.0,18955.0,18950.0,18950.0,95,24,18945,43,18950,25
2017-02-08 08:18:00,08:18:06,08:18:55,4904,5145,18945.0,44,18950.0,28,18950.0,18950.0,18930.0,18930.0,272,-90,18925,51,18930,40
2017-02-08 08:19:00,08:19:02,08:19:57,5153,5304,18925.0,53,18930.0,57,18925.0,18930.0,18925.0,18925.0,188,28,18925,40,18930,41
2017-02-08 08:20:00,08:20:00,08:20:59,5309,5556,18925.0,42,18930.0,47,18930.0,18930.0,18910.0,18910.0,255,-127,18905,65,18910,17
2017-02-08 08:21:00,08:21:05,08:21:54,5563,5710,18905.0,65,18910.0,21,18910.0,18915.0,18905.0,18910.0,119,23,18905,44,18910,9
2017-02-08 08:22:00,08:22:02,08:22:17,5718,5760,18905.0,49,18910.0,20,18905.0,18910.0,18905.0,18910.0,41,33,18905,46,18910,13
2017-02-08 08:23:00,08:23:19,08:23:47,5821,5864,18905.0,53,18910.0,11,18910.0,18915.0,18910.0,18915.0,23,23,18910,56,18915,18
2017-02-08 08:24:00,08:24:01,08:24:49,5875,6056,18910.0,63,18915.0,23,18915.0,18920.0,18910.0,18910.0,192,-102,18905,40,18915,51
2017-02-08 08:25:00,08:25:00,08:25:54,6074,6188,18905.0,39,18910.0,29,18910.0,18910.0,18905.0,18910.0,87,85,18905,49,18910,27
2017-02-08 08:26:00,08:26:09,08:26:48,6207,6286,18905.0,39,18910.0,41,18905.0,18910.0,18905.0,18910.0,50,32,18910,51,18915,29
2017-02-08 08:27:00,08:27:19,08:27:19,6305,6315,18910.0,61,18915.0,15,18915.0,18915.0,18915.0,18915.0,13,5,18915,28,18920,31
2017-02-08 08:28:00,08:28:15,08:28:56,6364,6431,18915.0,43,18920.0,12,18920.0,18920.0,18915.0,18915.0,41,9,18910,49,18915,28
2017-02-08 08:29:00,08:29:02,08:29:52,6443,6572,18910.0,50,18915.0,32,18915.0,18920.0,18915.0,18920.0,101,41,18920,28,18925,40
2017-02-08 08:30:00,08:30:00,08:30:54,6584,6766,18920.0,46,18925.0,14,18925.0,18940.0,18925.0,18940.0,161,71,18935,32,18940,31
2017-02-08 08:31:00,08:31:09,08:31:57,6784,6916,18935.0,32,18940.0,29,18940.0,18940.0,18940.0,18940.0,92,-16,18940,34,18945,37
2017-02-08 08:32:00,08:32:29,08:32:49,6944,7012,18940.0,32,18945.0,57,18940.0,18940.0,18940.0,18940.0,59,-45,18935,53,18945,38
2017-02-08 08:33:00,08:33:09,08:33:51,7032,7091,18935.0,54,18940.0,10,18940.0,18945.0,18940.0,18940.0,18,12,18940,13,18945,40
2017-02-08 08:34:00,08:34:02,08:34:52,7098,7188,18940.0,17,18945.0,42,18940.0,18940.0,18940.0,18940.0,47,-47,18935,82,18940,11
2017-02-08 08:35:00,08:35:00,08:35:59,7202,7268,18935.0,78,18940.0,16,18940.0,18940.0,18940.0,18940.0,39,15,18940,23,18945,35
2017-02-08 08:36:00,08:36:06,08:36:51,7280,7462,18940.0,39,18945.0,29,18945.0,18955.0,18945.0,18955.0,156,120,18955,36,18960,54
2017-02-08 08:37:00,08:37:00,08:37:19,7470,7614,18955.0,43,18960.0,54,18960.0,18965.0,18960.0,18960.0,174,76,18955,23,18960,40
2017-02-08 08:38:00,08:38:03,08:38:59,7647,7772,18955.0,28,18960.0,42,18955.0,18960.0,18950.0,18955.0,74,-32,18950,52,18955,44
2017-02-08 08:39:00,08:39:00,08:39:49,7777,7875,18950.0,50,18955.0,54,18955.0,18955.0,18950.0,18955.0,73,-7,18950,43,18960,49
2017-02-08 08:40:00,08:40:00,08:40:59,7885,8049,18950.0,39,18955.0,35,18955.0,18955.0,18950.0,18955.0,147,65,18955,5,18960,41
2017-02-08 08:41:00,08:41:50,08:41:50,8097,8111,18955.0,27,18960.0,50,18955.0,18955.0,18955.0,18955.0,29,-29,18950,35,18955,30
2017-02-08 08:42:00,08:42:06,08:42:59,8136,8220,18950.0,16,18955.0,52,18950.0,18950.0,18950.0,18950.0,51,-51,18945,45,18950,17
2017-02-08 08:43:00,08:43:01,08:43:44,8225,8357,18945.0,51,18950.0,12,18945.0,18950.0,18945.0,18950.0,125,-45,18945,38,18950,22
2017-02-08 08:44:00,08:44:04,08:44:42,8380,8452,18945.0,31,18950.0,33,18950.0,18950.0,18945.0,18945.0,60,30,18940,42,18945,24
2017-02-08 08:45:00,08:45:01,08:45:09,8469,8499,18940.0,43,18945.0,30,18945.0,18950.0,18945.0,18945.0,28,16,18940,44,18950,40
2017-02-08 08:46:00,08:46:20,08:46:59,8557,8615,18940.0,40,18945.0,34,18940.0,18945.0,18940.0,18940.0,55,-53,18940,14,18945,54
2017-02-08 08:47:00,08:47:02,08:47:42,8620,8656,18940.0,16,18945.0,54,18940.0,18940.0,18940.0,18940.0,6,-6,18940,18,18945,48
2017-02-08 08:48:00,08:48:07,08:48:35,8666,8720,18940.0,44,18945.0,44,18940.0,18945.0,18940.0,18940.0,48,-46,18940,20,18945,54
2017-02-08 08:49:00,08:49:14,08:49:54,8744,8830,18940.0,29,18945.0,50,18940.0,18940.0,18940.0,18940.0,73,-7,18935,78,18940,24
2017-02-08 08:50:00,08:50:23,08:50:50,8858,8938,18935.0,56,18940.0,54,18935.0,18935.0,18935.0,18935.0,67,-41,18935,53,18940,37
2017-02-08 08:51:00,08:51:13,08:51:48,8948,9027,18935.0,57,18940.0,30,18940.0,18940.0,18935.0,18940.0,56,50,18935,48,18940,26
2017-02-08 08:52:00,08:52:10,08:52:47,9038,9075,18935.0,51,18940.0,28,18940.0,18940.0,18940.0,18940.0,17,17,18940,18,18945,36
2017-02-08 08:53:00,08:53:29,08:53:30,9109,9130,18940.0,61,18945.0,17,18945.0,18945.0,18945.0,18945.0,27,10,18940,50,18945,21
2017-02-08 08:54:00,08:54:27,08:54:59,9173,9277,18940.0,40,18945.0,37,18940.0,18940.0,18940.0,18940.0,108,12,18935,44,18940,4
2017-02-08 08:55:00,08:55:00,08:55:58,9280,9419,18935.0,43,18940.0,22,18940.0,18940.0,18935.0,18935.0,104,-62,18935,40,18940,37
2017-02-08 08:56:00,08:56:45,08:56:45,9435,9435,18935.0,61,18940.0,33,18940.0,18940.0,18940.0,18940.0,1,1,18935,60,18940,39
2017-02-08 08:57:00,08:57:51,08:57:51,9457,9457,18935.0,63,18940.0,33,18940.0,18940.0,18940.0,18940.0,1,1,18935,62,18940,32
2017-02-08 08:58:00,08:58:00,08:58:52,9467,9526,18935.0,64,18940.0,32,18940.0,18940.0,18940.0,18940.0,45,45,18935,49,18940,33
2017-02-08 08:59:00,08:59:51,08:59:51,9573,9573,18935.0,55,18940.0,31,18940.0,18940.0,18940.0,18940.0,1,1,18935,53,18940,29
2017-02-08 09:00:00,09:00:14,09:00:53,9603,9737,18935.0,59,18940.0,14,18940.0,18945.0,18935.0,18940.0,102,22,18940,26,18945,44
2017-02-08 09:01:00,09:01:26,09:01:57,9758,9857,18940.0,48,18945.0,41,18945.0,18945.0,18945.0,18945.0,93,61,18945,30,18950,135
2017-02-08 09:02:00,09:02:10,09:02:54,9872,9961,18945.0,45,18950.0,127,18950.0,18950.0,18945.0,18945.0,155,111,18945,16,18950,36
2017-02-08 09:03:00,09:03:00,09:03:46,9969,10058,18945.0,21,18950.0,36,18945.0,18950.0,18945.0,18950.0,70,14,18950,23,18955,43
2017-02-08 09:04:00,09:04:03,09:04:50,10080,10208,18950.0,37,18955.0,48,18950.0,18950.0,18950.0,18950.0,122,-28,18945,30,18950,26
2017-02-08 09:05:00,09:05:11,09:05:20,10226,10259,18945.0,24,18950.0,45,18945.0,18945.0,18945.0,18945.0,35,-29,18945,18,18950,48
2017-02-08 09:06:00,09:06:00,09:06:00,0,0,0.0,0,0.0,0,18945.0,18945.0,18945.0,18945.0,0,0,0,0,0,0
2017-02-08 09:07:00,09:07:09,09:07:46,10305,10385,18945.0,29,18950.0,55,18950.0,18950.0,18945.0,18950.0,79,-31,18950,11,18955,52
2017-02-08 09:08:00,09:08:28,09:08:28,10409,10433,18950.0,32,18955.0,49,18950.0,18950.0,18950.0,18950.0,35,-35,18950,19,18955,55
2017-02-08 09:09:00,09:09:00,09:09:59,10446,10540,18950.0,22,18955.0,55,18950.0,18955.0,18950.0,18950.0,55,-23,18950,30,18955,42
2017-02-08 09:10:00,09:10:01,09:10:57,10544,10742,18950.0,30,18955.0,43,18950.0,18960.0,18950.0,18960.0,159,97,18960,35,18960,29
2017-02-08 09:11:00,09:11:00,09:11:28,10745,10831,18955.0,32,18960.0,31,18960.0,18965.0,18960.0,18965.0,75,75,18960,42,18965,28
2017-02-08 09:12:00,09:12:16,09:12:59,10862,10887,18960.0,43,18965.0,35,18965.0,18965.0,18960.0,18960.0,2,0,18960,43,18965,36
2017-02-08 09:13:00,09:13:00,09:13:45,10889,11030,18960.0,43,18965.0,37,18965.0,18970.0,18960.0,18970.0,128,70,18965,51,18970,31
2017-02-08 09:14:00,09:14:00,09:14:48,11058,11173,18965.0,50,18970.0,37,18970.0,18970.0,18955.0,18955.0,123,-117,18955,10,18960,45
2017-02-08 09:15:00,09:15:02,09:15:41,11198,11335,18955.0,22,18960.0,51,18955.0,18960.0,18945.0,18945.0,123,-77,18945,28,18950,31
2017-02-08 09:16:00,09:16:00,09:16:44,11356,11508,18945.0,32,18950.0,28,18950.0,18950.0,18940.0,18940.0,122,6,18940,38,18945,24
2017-02-08 09:17:00,09:17:10,09:17:56,11533,11629,18940.0,27,18945.0,34,18940.0,18950.0,18940.0,18940.0,62,-12,18935,47,18945,55
2017-02-08 09:18:00,09:18:07,09:18:28,11649,11733,18940.0,9,18945.0,59,18940.0,18940.0,18940.0,18940.0,67,-2,18940,29,18945,46
2017-02-08 09:19:00,09:19:05,09:19:55,11759,11839,18940.0,32,18945.0,43,18945.0,18945.0,18945.0,18945.0,43,15,18940,47,18950,32
2017-02-08 09:20:00,09:20:13,09:20:46,11852,11938,18940.0,46,18945.0,19,18945.0,18945.0,18935.0,18935.0,70,-24,18935,38,18940,37
2017-02-08 09:21:00,09:21:31,09:21:50,11974,12075,18935.0,45,18940.0,41,18940.0,18940.0,18930.0,18930.0,109,-101,18930,35,18935,32
2017-02-08 09:22:00,09:22:01,09:22:58,12087,12458,18930.0,43,18935.0,34,18935.0,18935.0,18910.0,18910.0,437,-225,18910,6,18915,50
2017-02-08 09:23:00,09:23:00,09:23:51,12464,12828,18905.0,36,18910.0,23,18905.0,18910.0,18895.0,18895.0,361,-1,18895,43,18900,28
2017-02-08 09:24:00,09:24:03,09:24:57,12852,13070,18895.0,35,18900.0,43,18895.0,18905.0,18895.0,18905.0,222,74,18900,41,18905,30
2017-02-08 09:25:00,09:25:02,09:25:58,13077,13185,18900.0,40,18905.0,36,18905.0,18905.0,18900.0,18900.0,63,7,18900,45,18905,42
2017-02-08 09:26:00,09:26:13,09:26:59,13210,13380,18900.0,38,18905.0,50,18900.0,18900.0,18885.0,18885.0,186,-94,18885,38,18890,65
2017-02-08 09:27:00,09:27:00,09:27:57,13384,13685,18885.0,42,18890.0,65,18885.0,18885.0,18880.0,18880.0,298,-98,18875,43,18880,22
2017-02-08 09:28:00,09:28:09,09:28:54,13713,13873,18875.0,41,18880.0,41,18880.0,18885.0,18880.0,18880.0,142,60,18880,43,18885,30
2017-02-08 09:29:00,09:29:02,09:29:54,13881,14019,18880.0,45,18885.0,21,18885.0,18890.0,18885.0,18885.0,140,6,18880,38,18885,13
2017-02-08 09:30:00,09:30:00,09:30:47,14033,14391,18880.0,40,18885.0,33,18880.0,18885.0,18870.0,18880.0,427,-97,18875,40,18880,24
2017-02-08 09:31:00,09:31:05,09:31:55,14422,14525,18875.0,25,18880.0,55,18875.0,18890.0,18875.0,18890.0,111,65,18885,49,18890,55
2017-02-08 09:32:00,09:32:05,09:32:53,14536,14703,18885.0,51,18890.0,50,18890.0,18890.0,18890.0,18890.0,140,6,18890,13,18895,50
2017-02-08 09:33:00,09:33:02,09:33:55,14712,14930,18890.0,27,18895.0,49,18890.0,18895.0,18885.0,18895.0,203,45,18890,32,18895,22
2017-02-08 09:34:00,09:34:03,09:34:57,14937,15023,18890.0,40,18895.0,14,18895.0,18895.0,18890.0,18890.0,42,-7,18890,30,18895,28
2017-02-08 09:35:00,09:35:14,09:35:50,15054,15139,18890.0,39,18895.0,28,18890.0,18890.0,18890.0,18890.0,68,-20,18890,9,18895,41
2017-02-08 09:36:00,09:36:04,09:36:57,15166,15347,18890.0,36,18895.0,32,18895.0,18895.0,18890.0,18895.0,150,-24,18890,40,18895,14
2017-02-08 09:37:00,09:37:05,09:37:58,15360,15437,18895.0,9,18900.0,51,18895.0,18895.0,18895.0,18895.0,33,17,18895,12,18895,2
2017-02-08 09:38:00,09:38:00,09:38:53,15439,15502,18890.0,60,18895.0,2,18895.0,18895.0,18890.0,18890.0,14,-4,18890,66,18895,46
2017-02-08 09:39:00,09:39:00,09:39:50,15507,15686,18890.0,68,18895.0,49,18890.0,18900.0,18890.0,18895.0,139,37,18890,64,18895,23
2017-02-08 09:40:00,09:40:00,09:40:59,15704,15917,18890.0,65,18895.0,32,18890.0,18890.0,18880.0,18885.0,230,-108,18880,57,18885,19
2017-02-08 09:41:00,09:41:00,09:41:51,15920,16110,18880.0,57,18885.0,19,18880.0,18885.0,18870.0,18870.0,187,-161,18870,42,18880,33
2017-02-08 09:42:00,09:42:02,09:42:48,16116,16274,18870.0,54,18875.0,51,18875.0,18885.0,18875.0,18880.0,162,64,18880,49,18885,24
2017-02-08 09:43:00,09:43:00,09:43:56,16281,16430,18880.0,57,18885.0,21,18885.0,18890.0,18885.0,18890.0,134,14,18885,74,18895,61
2017-02-08 09:44:00,09:44:00,09:44:49,16436,16619,18890.0,15,18895.0,61,18890.0,18890.0,18885.0,18885.0,138,-45,18885,13,18890,57
2017-02-08 09:45:00,09:45:04,09:45:52,16642,16762,18885.0,32,18890.0,53,18885.0,18890.0,18885.0,18890.0,123,37,18885,63,18895,63
2017-02-08 09:46:00,09:46:19,09:46:57,16786,16888,18890.0,20,18895.0,63,18890.0,18890.0,18885.0,18885.0,72,-20,18885,6,18890,54
2017-02-08 09:47:00,09:47:09,09:47:53,16897,16978,18885.0,19,18890.0,54,18885.0,18885.0,18885.0,18885.0,44,-28,18885,23,18890,15
2017-02-08 09:48:00,09:48:02,09:48:43,16980,17081,18885.0,23,18890.0,56,18890.0,18895.0,18890.0,18895.0,94,94,18895,37,18900,28
2017-02-08 09:49:00,09:49:03,09:49:51,17097,17288,18895.0,36,18900.0,53,18895.0,18895.0,18885.0,18885.0,192,-66,18885,7,18890,76
2017-02-08 09:50:00,09:50:00,09:50:50,17298,17336,18885.0,24,18890.0,75,18890.0,18890.0,18885.0,18885.0,22,-10,18880,64,18885,18
2017-02-08 09:51:00,09:51:00,09:51:49,17348,17454,18880.0,57,18885.0,39,18880.0,18885.0,18880.0,18885.0,67,-1,18885,28,18890,68
2017-02-08 09:52:00,09:52:00,09:52:58,17461,17524,18885.0,23,18890.0,68,18885.0,18885.0,18885.0,18885.0,31,-31,18885,16,18890,61
2017-02-08 09:53:00,09:53:11,09:53:43,17543,17600,18885.0,43,18890.0,56,18885.0,18885.0,18885.0,18885.0,64,10,18885,31,18890,63
2017-02-08 09:54:00,09:54:12,09:54:49,17623,17719,18885.0,48,18890.0,66,18890.0,18890.0,18885.0,18885.0,94,-10,18885,36,18890,49
2017-02-08 09:55:00,09:55:07,09:55:58,17733,17832,18885.0,36,18890.0,49,18890.0,18895.0,18890.0,18895.0,63,5,18890,68,18895,33
2017-02-08 09:56:00,09:56:06,09:56:56,17841,17880,18890.0,72,18895.0,30,18895.0,18900.0,18895.0,18900.0,27,27,18895,108,18900,39
2017-02-08 09:57:00,09:57:15,09:57:49,17894,17980,18895.0,107,18900.0,60,18895.0,18900.0,18895.0,18900.0,124,-85,18895,32,18900,25
2017-02-08 09:58:00,09:58:08,09:58:58,17994,18094,18895.0,33,18900.0,49,18895.0,18900.0,18895.0,18895.0,31,-13,18895,19,18900,56
2017-02-08 09:59:00,09:59:00,09:59:57,18096,18228,18895.0,19,18900.0,55,18895.0,18895.0,18890.0,18890.0,113,-87,18890,2,18895,55
2017-02-08 10:00:00,10:00:02,10:00:56,18237,18339,18890.0,19,18895.0,54,18890.0,18890.0,18885.0,18885.0,50,-6,18885,51,18890,30
2017-02-08 10:01:00,10:01:10,10:01:15,18345,18362,18885.0,48,18890.0,30,18885.0,18885.0,18885.0,18885.0,11,-11,18880,26,18885,31
2017-02-08 10:02:00,10:02:03,10:02:46,18408,18468,18880.0,43,18885.0,35,18885.0,18890.0,18885.0,18890.0,29,29,18885,16,18890,65
2017-02-08 10:03:00,10:03:17,10:03:47,18491,18590,18885.0,33,18890.0,65,18885.0,18890.0,18885.0,18885.0,83,11,18885,5,18890,57
2017-02-08 10:04:00,10:04:54,10:04:54,18630,18630,18885.0,29,18890.0,59,18890.0,18890.0,18890.0,18890.0,1,1,18885,27,18890,58
2017-02-08 10:05:00,10:05:01,10:05:01,18634,18650,18885.0,27,18890.0,64,18885.0,18885.0,18880.0,18880.0,25,-25,18880,48,18885,42
2017-02-08 10:06:00,10:06:30,10:06:43,18700,18792,18880.0,52,18885.0,44,18885.0,18890.0,18885.0,18890.0,112,110,18890,24,18895,52
2017-02-08 10:07:00,10:07:58,10:07:58,18843,18843,18890.0,36,18895.0,56,18895.0,18895.0,18895.0,18895.0,1,1,18890,35,18895,55
2017-02-08 10:08:00,10:08:46,10:08:56,18910,18921,18890.0,33,18895.0,53,18890.0,18895.0,18890.0,18895.0,4,-2,18890,57,18895,28
2017-02-08 10:09:00,10:09:10,10:09:59,18935,19056,18890.0,62,18895.0,19,18895.0,18895.0,18895.0,18895.0,74,6,18890,54,18895,6
2017-02-08 10:10:00,10:10:02,10:10:51,19062,19126,18890.0,55,18895.0,8,18895.0,18895.0,18895.0,18895.0,44,44,18890,65,18895,17
2017-02-08 10:11:00,10:11:04,10:11:55,19135,19186,18890.0,65,18895.0,19,18895.0,18895.0,18895.0,18895.0,17,9,18895,34,18900,59
2017-02-08 10:12:00,10:12:08,10:12:54,19199,19298,18895.0,39,18900.0,60,18900.0,18900.0,18890.0,18890.0,57,-33,18890,34,18895,35
2017-02-08 10:13:00,10:13:00,10:13:00,0,0,0.0,0,0.0,0,18890.0,18890.0,18890.0,18890.0,0,0,0,0,0,0
2017-02-08 10:14:00,10:14:11,10:14:55,19347,19386,18890.0,44,18895.0,43,18895.0,18895.0,18895.0,18895.0,46,34,18895,20,18900,69
2017-02-08 10:15:00,10:15:06,10:15:58,19397,19484,18895.0,35,18900.0,51,18900.0,18900.0,18895.0,18900.0,104,14,18895,67,18900,23
2017-02-08 10:16:00,10:16:59,10:16:59,19526,19558,18895.0,103,18900.0,30,18900.0,18900.0,18900.0,18900.0,48,48,18895,81,18900,25
2017-02-08 10:17:00,10:17:00,10:17:11,19559,19609,18895.0,103,18900.0,30,18900.0,18900.0,18900.0,18900.0,53,53,18895,75,18900,24
2017-02-08 10:18:00,10:18:16,10:18:51,19638,19720,18895.0,87,18900.0,44,18900.0,18900.0,18895.0,18895.0,83,-5,18895,10,18900,62
2017-02-08 10:19:00,10:19:14,10:19:40,19734,19834,18895.0,32,18900.0,64,18900.0,18900.0,18900.0,18900.0,100,92,18900,27,18905,60
2017-02-08 10:20:00,10:20:04,10:20:27,19851,19961,18900.0,64,18905.0,28,18905.0,18905.0,18900.0,18900.0,88,-42,18900,16,18905,53
2017-02-08 10:21:00,10:21:02,10:21:54,19981,20060,18900.0,62,18905.0,34,18900.0,18900.0,18900.0,18900.0,119,-94,18895,21,18900,57
2017-02-08 10:22:00,10:22:08,10:22:50,20074,20169,18895.0,11,18900.0,59,18895.0,18895.0,18890.0,18890.0,60,2,18890,48,18895,39
2017-02-08 10:23:00,10:23:04,10:23:58,20177,20268,18890.0,41,18895.0,41,18890.0,18890.0,18890.0,18890.0,68,24,18885,53,18890,30
2017-02-08 10:24:00,10:24:30,10:24:53,20281,20345,18885.0,52,18890.0,39,18885.0,18885.0,18885.0,18885.0,42,-12,18880,51,18885,27
2017-02-08 10:25:00,10:25:12,10:25:55,20353,20542,18880.0,51,18885.0,32,18885.0,18885.0,18880.0,18880.0,170,-10,18880,25,18885,63
2017-02-08 10:26:00,10:26:00,10:26:59,20548,20636,18880.0,17,18885.0,64,18880.0,18880.0,18875.0,18875.0,18,-10,18875,33,18880,62
2017-02-08 10:27:00,10:27:04,10:27:56,20646,20734,18875.0,56,18880.0,39,18880.0,18880.0,18875.0,18875.0,72,-70,18870,67,18880,70
2017-02-08 10:28:00,10:28:00,10:28:59,20737,20874,18875.0,4,18880.0,68,18875.0,18875.0,18865.0,18870.0,270,16,18865,95,18870,25
2017-02-08 10:29:00,10:29:04,10:29:58,20888,21048,18865.0,110,18870.0,49,18865.0,18870.0,18865.0,18870.0,223,-49,18865,60,18870,17
2017-02-08 10:30:00,10:30:00,10:30:49,21054,21194,18865.0,60,18870.0,37,18870.0,18870.0,18865.0,18865.0,113,-3,18860,91,18865,17
2017-02-08 10:31:00,10:31:00,10:31:45,21201,21280,18860.0,91,18865.0,16,18860.0,18870.0,18860.0,18870.0,56,16,18865,46,18870,39
2017-02-08 10:32:00,10:32:25,10:32:53,21297,21359,18865.0,40,18870.0,53,18870.0,18870.0,18860.0,18865.0,59,-37,18860,49,18865,26
2017-02-08 10:33:00,10:33:09,10:33:58,21375,21423,18860.0,50,18865.0,26,18865.0,18865.0,18865.0,18865.0,23,17,18865,31,18870,36
2017-02-08 10:34:00,10:34:43,10:34:49,21428,21432,18865.0,33,18870.0,36,18870.0,18870.0,18870.0,18870.0,2,2,18865,33,18870,31
2017-02-08 10:35:00,10:35:49,10:35:49,21449,21449,18865.0,25,18870.0,49,18870.0,18870.0,18870.0,18870.0,1,1,18865,21,18870,48
2017-02-08 10:36:00,10:36:09,10:36:30,21455,21528,18865.0,16,18870.0,49,18865.0,18865.0,18860.0,18865.0,65,20,18860,44,18865,5
2017-02-08 10:37:00,10:37:00,10:37:43,21549,21632,18860.0,50,18865.0,20,18865.0,18865.0,18860.0,18865.0,68,38,18860,47,18870,51
2017-02-08 10:38:00,10:38:04,10:38:32,21644,21687,18865.0,23,18870.0,52,18865.0,18865.0,18860.0,18865.0,34,6,18865,6,18865,7
2017-02-08 10:39:00,10:39:02,10:39:48,21698,21733,18865.0,2,18870.0,53,18865.0,18865.0,18865.0,18865.0,28,3,18860,50,18870,52
2017-02-08 10:40:00,10:40:13,10:40:53,21740,21750,18865.0,26,18870.0,53,18870.0,18870.0,18865.0,18870.0,3,1,18865,25,18870,54
2017-02-08 10:41:00,10:41:00,10:41:00,0,0,0.0,0,0.0,0,18870.0,18870.0,18870.0,18870.0,0,0,0,0,0,0
2017-02-08 10:42:00,10:42:00,10:42:57,21780,21822,18865.0,55,18870.0,30,18865.0,18875.0,18865.0,18875.0,22,18,18870,41,18875,28
2017-02-08 10:43:00,10:43:00,10:43:00,0,0,0.0,0,0.0,0,18875.0,18875.0,18875.0,18875.0,0,0,0,0,0,0
2017-02-08 10:44:00,10:44:00,10:44:58,21838,21944,18870.0,41,18875.0,30,18875.0,18880.0,18875.0,18880.0,86,22,18880,3,18885,68
2017-02-08 10:45:00,10:45:00,10:45:51,21948,22032,18880.0,3,18885.0,67,18880.0,18880.0,18870.0,18875.0,57,-3,18875,28,18880,38
2017-02-08 10:46:00,10:46:04,10:46:51,22038,22159,18875.0,33,18880.0,45,18880.0,18880.0,18875.0,18880.0,105,79,18880,39,18885,28
2017-02-08 10:47:00,10:47:05,10:47:29,22174,22340,18880.0,58,18885.0,4,18885.0,18885.0,18870.0,18875.0,226,-142,18870,50,18880,43
2017-02-08 10:48:00,10:48:11,10:48:33,22364,22412,18875.0,35,18880.0,41,18880.0,18880.0,18880.0,18880.0,59,59,18880,19,18885,48
2017-02-08 10:49:00,10:49:08,10:49:54,22442,22477,18880.0,53,18885.0,46,18880.0,18885.0,18880.0,18885.0,40,-28,18885,9,18885,4
2017-02-08 10:50:00,10:50:03,10:50:18,22482,22502,18880.0,50,18885.0,12,18885.0,18890.0,18885.0,18890.0,7,7,18885,20,18890,52
2017-02-08 10:51:00,10:51:19,10:51:19,22525,22525,18885.0,29,18890.0,51,18890.0,18890.0,18890.0,18890.0,1,1,18885,28,18890,50
2017-02-08 10:52:00,10:52:21,10:52:24,22553,22573,18885.0,35,18890.0,48,18890.0,18890.0,18885.0,18885.0,22,-20,18885,8,18890,55
2017-02-08 10:53:00,10:53:00,10:53:00,0,0,0.0,0,0.0,0,18885.0,18885.0,18885.0,18885.0,0,0,0,0,0,0
2017-02-08 10:54:00,10:54:04,10:54:23,22606,22621,18885.0,37,18890.0,48,18890.0,18890.0,18890.0,18890.0,12,12,18885,37,18890,39
2017-02-08 10:55:00,10:55:20,10:55:54,22629,22660,18885.0,38,18890.0,42,18890.0,18890.0,18890.0,18890.0,24,10,18885,54,18890,20
2017-02-08 10:56:00,10:56:28,10:56:28,22668,22668,18885.0,56,18890.0,29,18890.0,18890.0,18890.0,18890.0,1,1,18885,55,18890,28
2017-02-08 10:57:00,10:57:25,10:57:51,22681,22762,18885.0,55,18890.0,50,18885.0,18895.0,18885.0,18890.0,132,-48,18885,54,18890,23
2017-02-08 10:58:00,10:58:00,10:58:00,0,0,0.0,0,0.0,0,18890.0,18890.0,18890.0,18890.0,0,0,0,0,0,0
2017-02-08 10:59:00,10:59:18,10:59:57,22799,22855,18885.0,59,18890.0,24,18890.0,18895.0,18890.0,18890.0,42,-6,18890,11,18895,62
2017-02-08 11:00:00,11:00:03,11:00:24,22875,22928,18890.0,20,18895.0,62,18890.0,18895.0,18890.0,18890.0,48,-46,18890,3,18895,65
2017-02-08 11:01:00,11:01:15,11:01:59,22947,22991,18890.0,15,18895.0,67,18890.0,18890.0,18885.0,18885.0,23,-23,18885,40,18890,38
2017-02-08 11:02:00,11:02:07,11:02:59,22995,23038,18885.0,39,18890.0,38,18885.0,18890.0,18885.0,18885.0,23,-21,18885,29,18890,38
2017-02-08 11:03:00,11:03:34,11:03:46,23046,23096,18885.0,39,18890.0,32,18890.0,18895.0,18890.0,18890.0,52,42,18885,37,18890,29
2017-02-08 11:04:00,11:04:25,11:04:49,23113,23130,18885.0,60,18890.0,26,18890.0,18890.0,18890.0,18890.0,12,12,18885,60,18890,14
2017-02-08 11:05:00,11:05:18,11:05:44,23136,23165,18885.0,61,18890.0,16,18890.0,18890.0,18885.0,18890.0,28,26,18890,64,18895,61
2017-02-08 11:06:00,11:06:40,11:06:40,23187,23187,18890.0,88,18895.0,40,18895.0,18895.0,18895.0,18895.0,1,1,18890,87,18895,39
2017-02-08 11:07:00,11:07:10,11:07:27,23194,23246,18890.0,88,18895.0,44,18890.0,18890.0,18890.0,18890.0,115,-109,18885,68,18890,20
2017-02-08 11:08:00,11:08:09,11:08:49,23254,23282,18885.0,73,18890.0,25,18890.0,18895.0,18890.0,18895.0,8,6,18890,28,18895,57
2017-02-08 11:09:00,11:09:17,11:09:54,23320,23335,18890.0,50,18895.0,54,18895.0,18895.0,18895.0,18895.0,7,7,18890,57,18895,52
2017-02-08 11:10:00,11:10:01,11:10:57,23340,23478,18890.0,56,18895.0,50,18895.0,18905.0,18895.0,18900.0,162,90,18895,50,18905,56
2017-02-08 11:11:00,11:11:04,11:11:43,23495,23645,18895.0,20,18900.0,42,18895.0,18905.0,18895.0,18900.0,227,-41,18895,56,18905,59
2017-02-08 11:12:00,11:12:01,11:12:37,23662,23770,18895.0,58,18900.0,3,18900.0,18905.0,18900.0,18905.0,114,-5,18905,16,18910,30
2017-02-08 11:13:00,11:13:03,11:13:55,23786,23806,18905.0,20,18910.0,47,18905.0,18910.0,18905.0,18910.0,6,4,18905,26,18910,43
2017-02-08 11:14:00,11:14:59,11:14:59,23824,23824,18905.0,30,18910.0,44,18910.0,18910.0,18910.0,18910.0,1,1,18905,29,18910,42
2017-02-08 11:15:00,11:15:07,11:15:24,23829,23940,18905.0,34,18910.0,42,18910.0,18910.0,18910.0,18910.0,96,-54,18910,1,18915,39
2017-02-08 11:16:00,11:16:02,11:16:21,23965,24012,18910.0,10,18915.0,55,18910.0,18910.0,18910.0,18910.0,30,-4,18905,44,18910,21
2017-02-08 11:17:00,11:17:07,11:17:49,24026,24132,18905.0,48,18910.0,43,18910.0,18915.0,18910.0,18915.0,80,30,18915,7,18920,51
2017-02-08 11:18:00,11:18:01,11:18:53,24146,24211,18910.0,50,18915.0,6,18915.0,18915.0,18915.0,18915.0,44,-12,18910,31,18915,60
2017-02-08 11:19:00,11:19:22,11:19:56,24234,24270,18910.0,52,18915.0,23,18915.0,18915.0,18910.0,18910.0,26,-22,18910,25,18915,31
2017-02-08 11:20:00,11:20:03,11:20:50,24279,24391,18910.0,23,18915.0,47,18910.0,18915.0,18910.0,18915.0,129,-15,18910,49,18915,32
2017-02-08 11:21:00,11:21:04,11:21:58,24397,24466,18910.0,53,18915.0,30,18915.0,18920.0,18915.0,18915.0,79,-13,18910,50,18915,6
2017-02-08 11:22:00,11:22:12,11:22:44,24480,24589,18910.0,22,18915.0,55,18910.0,18910.0,18905.0,18905.0,109,-107,18905,4,18905,3
2017-02-08 11:23:00,11:23:13,11:23:44,24595,24631,18905.0,1,18910.0,88,18905.0,18905.0,18900.0,18905.0,15,5,18905,3,18910,88
2017-02-08 11:24:00,11:24:18,11:24:18,24651,24685,18905.0,24,18910.0,89,18905.0,18905.0,18905.0,18905.0,53,-53,18905,33,18910,48
2017-02-08 11:25:00,11:25:16,11:25:16,24698,24698,18905.0,40,18910.0,47,18910.0,18910.0,18910.0,18910.0,1,1,18905,39,18910,46
2017-02-08 11:26:00,11:26:07,11:26:22,24725,24742,18905.0,24,18910.0,50,18905.0,18910.0,18905.0,18910.0,7,5,18905,24,18910,47
2017-02-08 11:27:00,11:27:25,11:27:43,24784,24792,18905.0,36,18910.0,48,18910.0,18910.0,18910.0,18910.0,11,11,18905,41,18910,35
2017-02-08 11:28:00,11:28:09,11:28:48,24798,24816,18905.0,43,18910.0,40,18910.0,18910.0,18910.0,18910.0,5,5,18905,50,18910,34
2017-02-08 11:29:00,11:29:13,11:29:59,24821,24920,18905.0,50,18910.0,39,18910.0,18915.0,18910.0,18915.0,100,26,18910,46,18915,10
2017-02-08 11:30:00,11:30:00,11:30:52,24923,25134,18910.0,46,18915.0,10,18915.0,18915.0,18900.0,18905.0,218,-43,18905,4,18910,56
2017-02-08 11:31:00,11:31:03,11:31:54,25153,25200,18905.0,22,18910.0,53,18905.0,18905.0,18900.0,18905.0,21,-20,18905,11,18910,54
2017-02-08 11:32:00,11:32:05,11:32:56,25210,25289,18905.0,32,18910.0,48,18910.0,18910.0,18910.0,18910.0,57,27,18910,21,18915,48
2017-02-08 11:33:00,11:33:00,11:33:57,25294,25397,18910.0,24,18915.0,49,18910.0,18910.0,18910.0,18910.0,91,-7,18905,25,18910,36
2017-02-08 11:34:00,11:34:04,11:34:56,25411,25483,18905.0,41,18910.0,40,18905.0,18905.0,18905.0,18905.0,12,-12,18905,38,18910,33
2017-02-08 11:35:00,11:35:02,11:35:59,25491,25649,18905.0,43,18910.0,25,18910.0,18910.0,18900.0,18910.0,119,13,18905,13,18910,45
2017-02-08 11:36:00,11:36:00,11:36:48,25650,25737,18900.0,47,18910.0,47,18910.0,18910.0,18905.0,18905.0,43,7,18905,21,18910,48
2017-02-08 11:37:00,11:37:13,11:37:59,25744,25953,18905.0,47,18910.0,47,18910.0,18920.0,18910.0,18915.0,247,141,18915,18,18920,47
2017-02-08 11:38:00,11:38:00,11:38:50,25954,26167,18915.0,29,18920.0,40,18915.0,18920.0,18905.0,18905.0,241,-27,18905,19,18910,43
2017-02-08 11:39:00,11:39:14,11:39:53,26178,26357,18905.0,21,18910.0,47,18910.0,18910.0,18900.0,18900.0,151,-86,18895,26,18900,44
2017-02-08 11:40:00,11:40:05,11:40:43,26374,26442,18895.0,13,18900.0,47,18895.0,18895.0,18895.0,18895.0,28,7,18895,28,18900,53
2017-02-08 11:41:00,11:41:51,11:41:51,26467,26467,18895.0,48,18900.0,53,18900.0,18900.0,18900.0,18900.0,1,1,18895,49,18900,52
2017-02-08 11:42:00,11:42:27,11:42:44,26482,26564,18895.0,32,18900.0,55,18900.0,18900.0,18900.0,18900.0,91,91,18895,53,18900,18
2017-02-08 11:43:00,11:43:06,11:43:45,26574,26656,18895.0,58,18900.0,20,18900.0,18900.0,18900.0,18900.0,47,25,18900,7,18905,44
2017-02-08 11:44:00,11:44:06,11:44:59,26687,26748,18900.0,41,18905.0,25,18905.0,18910.0,18905.0,18905.0,41,-9,18905,12,18910,37
2017-02-08 11:45:00,11:45:14,11:45:56,26759,26805,18905.0,9,18910.0,38,18905.0,18905.0,18905.0,18905.0,18,-12,18905,12,18910,44
2017-02-08 11:46:00,11:46:06,11:46:54,26821,26884,18905.0,16,18910.0,46,18905.0,18905.0,18905.0,18905.0,25,-13,18900,50,18905,6
2017-02-08 11:47:00,11:47:20,11:47:42,26913,27015,18900.0,49,18905.0,27,18900.0,18900.0,18895.0,18895.0,85,-83,18895,14,18900,44
2017-02-08 11:48:00,11:48:40,11:48:53,27046,27145,18895.0,49,18900.0,44,18895.0,18900.0,18895.0,18895.0,109,37,18895,46,18900,9
2017-02-08 11:49:00,11:49:02,11:49:58,27154,27277,18895.0,49,18900.0,10,18900.0,18905.0,18900.0,18900.0,96,19,18900,29,18905,27
2017-02-08 11:50:00,11:50:45,11:50:59,27366,27443,18900.0,29,18905.0,41,18900.0,18900.0,18900.0,18900.0,81,-7,18900,1,18905,49
2017-02-08 11:51:00,11:51:00,11:51:26,27447,27466,18900.0,1,18905.0,51,18900.0,18900.0,18900.0,18900.0,14,12,18900,17,18905,30
2017-02-08 11:52:00,11:52:06,11:52:35,27503,27539,18900.0,55,18905.0,13,18905.0,18910.0,18905.0,18910.0,19,19,18905,35,18910,41
2017-02-08 11:53:00,11:53:17,11:53:17,27556,27574,18905.0,30,18910.0,52,18905.0,18905.0,18905.0,18905.0,20,-20,18900,45,18905,23
2017-02-08 11:54:00,11:54:03,11:54:11,27599,27636,18900.0,48,18905.0,27,18900.0,18905.0,18900.0,18905.0,42,-12,18900,50,18905,7
2017-02-08 11:55:00,11:55:04,11:55:57,27663,27771,18900.0,57,18905.0,22,18905.0,18905.0,18900.0,18900.0,144,-70,18895,50,18900,17
2017-02-08 11:56:00,11:56:14,11:56:42,27785,27833,18895.0,33,18900.0,46,18900.0,18900.0,18900.0,18900.0,28,28,18895,50,18900,9
2017-02-08 11:57:00,11:57:07,11:57:59,27844,27934,18895.0,57,18900.0,19,18900.0,18905.0,18900.0,18905.0,70,60,18905,21,18910,61
2017-02-08 11:58:00,11:58:04,11:58:53,27940,28072,18905.0,22,18910.0,61,18905.0,18905.0,18890.0,18895.0,111,-69,18890,45,18895,9
2017-02-08 11:59:00,11:59:09,11:59:11,28092,28102,18890.0,44,18895.0,15,18895.0,18895.0,18895.0,18895.0,10,-6,18895,5,18900,45
2017-02-08 12:00:00,12:00:09,12:00:59,28143,28260,18895.0,57,18900.0,19,18900.0,18905.0,18895.0,18900.0,79,-25,18900,4,18905,47
2017-02-08 12:01:00,12:01:00,12:01:06,28266,28282,18900.0,2,18905.0,51,18900.0,18900.0,18900.0,18900.0,14,6,18895,40,18900,18
2017-02-08 12:02:00,12:02:01,12:02:30,28309,28355,18895.0,46,18900.0,25,18895.0,18895.0,18895.0,18895.0,16,-16,18895,21,18900,57
2017-02-08 12:03:00,12:03:25,12:03:52,28378,28459,18895.0,38,18900.0,50,18900.0,18900.0,18895.0,18900.0,70,-1,18900,3,18905,61
2017-02-08 12:04:00,12:04:31,12:04:31,28473,28483,18900.0,28,18905.0,61,18900.0,18900.0,18900.0,18900.0,21,-21,18900,4,18905,62
2017-02-08 12:05:00,12:05:32,12:05:52,28510,28540,18900.0,28,18905.0,56,18905.0,18905.0,18905.0,18905.0,25,19,18905,11,18910,46
2017-02-08 12:06:00,12:06:01,12:06:50,28558,28584,18905.0,45,18910.0,48,18910.0,18910.0,18910.0,18910.0,5,5,18905,40,18910,54
2017-02-08 12:07:00,12:07:01,12:07:47,28595,28688,18905.0,40,18910.0,54,18910.0,18910.0,18910.0,18910.0,62,55,18905,62,18915,59
2017-02-08 12:08:00,12:08:03,12:08:50,28711,28775,18905.0,62,18910.0,32,18905.0,18915.0,18905.0,18915.0,32,18,18910,46,18915,48
2017-02-08 12:09:00,12:09:53,12:09:56,28792,28820,18910.0,57,18915.0,26,18915.0,18915.0,18915.0,18915.0,46,44,18915,16,18920,63
2017-02-08 12:10:00,12:10:00,12:10:20,28827,28843,18915.0,16,18920.0,67,18915.0,18915.0,18915.0,18915.0,2,-2,18915,21,18920,72
2017-02-08 12:11:00,12:11:02,12:11:55,28866,28896,18915.0,43,18920.0,71,18915.0,18920.0,18915.0,18915.0,6,-4,18915,21,18920,53
2017-02-08 12:12:00,12:12:43,12:12:59,28907,28926,18915.0,71,18920.0,68,18920.0,18920.0,18920.0,18920.0,11,11,18915,72,18920,60
2017-02-08 12:13:00,12:13:13,12:13:50,28936,28956,18915.0,89,18920.0,43,18920.0,18920.0,18920.0,18920.0,3,3,18915,91,18920,55
2017-02-08 12:14:00,12:14:42,12:14:59,28972,29033,18915.0,97,18920.0,50,18920.0,18920.0,18920.0,18920.0,59,59,18915,62,18920,53
2017-02-08 12:15:00,12:15:01,12:15:59,29038,29094,18915.0,54,18920.0,53,18915.0,18920.0,18915.0,18920.0,60,-20,18915,68,18920,17
2017-02-08 12:16:00,12:16:00,12:16:59,29095,29161,18915.0,47,18920.0,55,18920.0,18920.0,18915.0,18915.0,64,-28,18915,9,18920,53
2017-02-08 12:17:00,12:17:00,12:17:50,29163,29183,18915.0,9,18920.0,52,18915.0,18920.0,18915.0,18920.0,3,-1,18915,7,18920,58
2017-02-08 12:18:00,12:18:25,12:18:58,29217,29232,18915.0,46,18920.0,40,18920.0,18920.0,18920.0,18920.0,6,6,18915,39,18920,54
2017-02-08 12:19:00,12:19:09,12:19:51,29236,29403,18915.0,39,18920.0,52,18920.0,18920.0,18915.0,18920.0,120,58,18915,25,18920,40
2017-02-08 12:20:00,12:20:46,12:20:58,29425,29471,18915.0,53,18920.0,33,18920.0,18920.0,18920.0,18920.0,52,-34,18920,12,18925,59
2017-02-08 12:21:00,12:21:11,12:21:53,29482,29515,18920.0,11,18925.0,60,18920.0,18920.0,18920.0,18920.0,16,-10,18915,51,18920,42
2017-02-08 12:22:00,12:22:42,12:22:44,29533,29567,18915.0,55,18920.0,40,18920.0,18920.0,18920.0,18920.0,50,-16,18920,11,18925,50
2017-02-08 12:23:00,12:23:10,12:23:53,29575,29661,18920.0,24,18925.0,50,18920.0,18935.0,18920.0,18935.0,78,4,18930,50,18935,49
2017-02-08 12:24:00,12:24:03,12:24:17,29668,29738,18930.0,60,18935.0,49,18930.0,18930.0,18930.0,18930.0,116,-116,18930,31,18935,56
2017-02-08 12:25:00,12:25:02,12:25:57,29755,29923,18930.0,41,18935.0,50,18935.0,18935.0,18935.0,18935.0,171,59,18935,1,18940,61
2017-02-08 12:26:00,12:26:21,12:26:57,29943,30011,18935.0,59,18940.0,44,18940.0,18940.0,18940.0,18940.0,61,47,18940,22,18945,59
2017-02-08 12:27:00,12:27:04,12:27:53,30018,30115,18940.0,24,18945.0,61,18945.0,18945.0,18935.0,18935.0,92,-2,18935,57,18940,46
2017-02-08 12:28:00,12:28:08,12:28:37,30126,30194,18935.0,61,18940.0,53,18940.0,18940.0,18935.0,18935.0,111,-17,18930,83,18935,6
2017-02-08 12:29:00,12:29:17,12:29:50,30214,30235,18930.0,84,18935.0,16,18935.0,18935.0,18935.0,18935.0,13,13,18930,83,18940,62
2017-02-08 12:30:00,12:30:05,12:30:45,30247,30363,18930.0,84,18935.0,20,18935.0,18945.0,18935.0,18935.0,137,46,18935,16,18940,59
2017-02-08 12:31:00,12:31:13,12:31:59,30376,30454,18935.0,58,18940.0,56,18935.0,18940.0,18935.0,18935.0,66,20,18935,67,18940,15
2017-02-08 12:32:00,12:32:07,12:32:50,30460,30570,18935.0,77,18940.0,16,18940.0,18945.0,18940.0,18940.0,78,46,18940,29,18945,57
2017-02-08 12:33:00,12:33:01,12:33:58,30594,30751,18940.0,54,18945.0,56,18945.0,18950.0,18945.0,18945.0,208,80,18940,61,18945,10
2017-02-08 12:34:00,12:34:01,12:34:11,30754,30778,18940.0,62,18945.0,7,18945.0,18945.0,18945.0,18945.0,23,23,18940,61,18945,6
2017-02-08 12:35:00,12:35:21,12:35:31,30804,30817,18940.0,61,18945.0,36,18945.0,18945.0,18945.0,18945.0,6,6,18940,74,18945,23
2017-02-08 12:36:00,12:36:16,12:36:21,30842,30932,18940.0,75,18945.0,39,18940.0,18940.0,18940.0,18940.0,128,-121,18935,69,18940,6
2017-02-08 12:37:00,12:37:02,12:37:43,30947,31053,18935.0,56,18940.0,63,18935.0,18940.0,18935.0,18935.0,103,7,18935,14,18940,67
2017-02-08 12:38:00,12:38:00,12:38:25,31062,31169,18935.0,28,18940.0,66,18940.0,18940.0,18940.0,18940.0,147,59,18940,42,18945,33
2017-02-08 12:39:00,12:39:18,12:39:48,31187,31281,18940.0,31,18945.0,56,18940.0,18940.0,18940.0,18940.0,96,-32,18935,66,18940,17
2017-02-08 12:40:00,12:40:03,12:40:48,31297,31352,18935.0,106,18940.0,13,18940.0,18940.0,18935.0,18935.0,50,44,18935,57,18940,88
2017-02-08 12:41:00,12:41:01,12:41:45,31356,31380,18935.0,56,18940.0,88,18940.0,18940.0,18940.0,18940.0,28,28,18935,105,18940,38
2017-02-08 12:42:00,12:42:09,12:42:50,31388,31486,18935.0,116,18940.0,38,18940.0,18940.0,18940.0,18940.0,108,-32,18940,21,18945,60
2017-02-08 12:43:00,12:43:35,12:43:37,31510,31521,18940.0,18,18945.0,57,18940.0,18940.0,18940.0,18940.0,10,-10,18935,57,18940,12
2017-02-08 12:44:00,12:44:04,12:44:59,31540,31606,18935.0,60,18940.0,13,18940.0,18940.0,18935.0,18935.0,36,-26,18935,9,18940,58
2017-02-08 12:45:00,12:45:25,12:45:34,31632,31642,18935.0,56,18940.0,18,18940.0,18940.0,18940.0,18940.0,6,6,18935,58,18940,5
2017-02-08 12:46:00,12:46:47,12:46:47,31662,31662,18935.0,50,18940.0,56,18940.0,18940.0,18940.0,18940.0,1,1,18935,49,18940,55
2017-02-08 12:47:00,12:47:24,12:47:49,31674,31684,18935.0,23,18940.0,58,18940.0,18940.0,18935.0,18940.0,3,1,18935,52,18940,55
2017-02-08 12:48:00,12:48:52,12:48:54,31699,31702,18935.0,57,18940.0,54,18940.0,18940.0,18935.0,18935.0,2,0,18935,57,18940,52
2017-02-08 12:49:00,12:49:51,12:49:54,31710,31714,18935.0,61,18940.0,51,18940.0,18940.0,18940.0,18940.0,2,2,18935,59,18940,48
2017-02-08 12:50:00,12:50:00,12:50:35,31719,31835,18935.0,60,18940.0,46,18940.0,18940.0,18940.0,18940.0,110,66,18940,8,18945,72
2017-02-08 12:51:00,12:51:21,12:51:48,31855,31939,18940.0,25,18945.0,60,18945.0,18945.0,18940.0,18945.0,66,-14,18940,50,18950,85
2017-02-08 12:52:00,12:52:37,12:52:49,31971,32014,18945.0,24,18950.0,73,18945.0,18945.0,18945.0,18945.0,42,-35,18945,1,18950,74
2017-02-08 12:53:00,12:53:05,12:53:53,32027,32190,18945.0,3,18950.0,70,18945.0,18955.0,18945.0,18950.0,274,56,18945,67,18950,2
2017-02-08 12:54:00,12:54:05,12:54:05,32200,32200,18945.0,69,18950.0,11,18950.0,18950.0,18950.0,18950.0,1,1,18945,73,18950,10
2017-02-08 12:55:00,12:55:05,12:55:22,32220,32228,18945.0,73,18950.0,42,18950.0,18950.0,18945.0,18945.0,3,-1,18945,71,18950,41
2017-02-08 12:56:00,12:56:04,12:56:40,32236,32291,18945.0,67,18950.0,42,18950.0,18950.0,18940.0,18940.0,38,-34,18940,61,18945,15
2017-02-08 12:57:00,12:57:32,12:57:34,32307,32345,18940.0,54,18945.0,33,18945.0,18945.0,18940.0,18945.0,43,-19,18945,19,18950,65
2017-02-08 12:58:00,12:58:17,12:58:19,32393,32417,18945.0,25,18950.0,66,18945.0,18945.0,18940.0,18940.0,32,-31,18940,59,18945,4
2017-02-08 12:59:00,12:59:04,12:59:47,32436,32532,18940.0,62,18945.0,20,18945.0,18945.0,18940.0,18945.0,73,25,18940,48,18945,9
2017-02-08 13:00:00,13:00:08,13:00:48,32551,32622,18940.0,53,18945.0,9,18945.0,18950.0,18940.0,18950.0,49,5,18945,27,18950,48
2017-02-08 13:01:00,13:01:01,13:01:45,32631,32666,18945.0,13,18950.0,51,18945.0,18945.0,18940.0,18945.0,18,-16,18940,57,18945,25
2017-02-08 13:02:00,13:02:12,13:02:12,32682,32682,18940.0,53,18945.0,31,18945.0,18945.0,18945.0,18945.0,1,1,18940,52,18945,30
2017-02-08 13:03:00,13:03:20,13:03:34,32713,32752,18940.0,58,18945.0,34,18945.0,18945.0,18940.0,18945.0,35,19,18940,58,18945,2
2017-02-08 13:04:00,13:04:22,13:04:52,32779,32833,18940.0,63,18945.0,25,18945.0,18945.0,18940.0,18945.0,30,6,18940,54,18945,14
2017-02-08 13:05:00,13:05:43,13:05:43,32859,32859,18940.0,55,18945.0,25,18940.0,18940.0,18940.0,18940.0,1,-1,18940,49,18945,33
2017-02-08 13:06:00,13:06:20,13:06:53,32869,32914,18940.0,51,18945.0,36,18945.0,18945.0,18940.0,18940.0,39,-37,18940,29,18945,73
2017-02-08 13:07:00,13:07:47,13:07:47,32930,32930,18940.0,65,18945.0,60,18940.0,18940.0,18940.0,18940.0,1,-1,18940,64,18945,62
2017-02-08 13:08:00,13:08:22,13:08:29,32942,32950,18940.0,66,18945.0,64,18945.0,18945.0,18940.0,18940.0,5,-1,18940,62,18945,62
2017-02-08 13:09:00,13:09:02,13:09:46,32963,33032,18940.0,20,18945.0,79,18945.0,18945.0,18940.0,18940.0,56,-26,18940,64,18945,55
2017-02-08 13:10:00,13:10:25,13:10:28,33051,33057,18940.0,47,18945.0,62,18940.0,18945.0,18940.0,18945.0,3,-1,18940,52,18945,63
2017-02-08 13:11:00,13:11:12,13:11:56,33068,33145,18940.0,50,18945.0,66,18945.0,18945.0,18940.0,18940.0,70,-50,18935,78,18945,94
2017-02-08 13:12:00,13:12:01,13:12:01,33152,33153,18940.0,34,18945.0,89,18940.0,18940.0,18940.0,18940.0,4,-4,18940,29,18945,91
2017-02-08 13:13:00,13:13:19,13:13:20,33183,33210,18940.0,65,18945.0,88,18940.0,18940.0,18940.0,18940.0,52,-52,18940,15,18945,77
2017-02-08 13:14:00,13:14:32,13:14:40,33232,33237,18940.0,31,18945.0,69,18945.0,18945.0,18945.0,18945.0,3,3,18940,33,18945,66
2017-02-08 13:15:00,13:15:03,13:15:53,33248,33276,18940.0,31,18945.0,73,18940.0,18945.0,18940.0,18940.0,12,-10,18940,28,18945,74
2017-02-08 13:16:00,13:16:44,13:16:47,33305,33338,18940.0,22,18945.0,83,18945.0,18945.0,18940.0,18940.0,41,-1,18940,30,18945,78
2017-02-08 13:17:00,13:17:00,13:17:48,33350,33488,18940.0,35,18945.0,71,18940.0,18945.0,18940.0,18945.0,168,-2,18940,64,18945,32
2017-02-08 13:18:00,13:18:23,13:18:41,33513,33549,18940.0,67,18945.0,34,18945.0,18950.0,18945.0,18950.0,33,31,18945,33,18950,71
2017-02-08 13:19:00,13:19:19,13:19:49,33576,33631,18945.0,35,18950.0,72,18950.0,18950.0,18945.0,18945.0,48,-44,18940,63,18945,8
2017-02-08 13:20:00,13:20:39,13:20:55,33654,33726,18940.0,41,18945.0,62,18940.0,18945.0,18940.0,18945.0,82,22,18940,54,18945,16
2017-02-08 13:21:00,13:21:00,13:21:44,33735,33778,18940.0,60,18945.0,2,18945.0,18945.0,18940.0,18940.0,29,-3,18940,60,18945,17
2017-02-08 13:22:00,13:22:47,13:22:54,33797,33818,18940.0,62,18945.0,17,18945.0,18950.0,18945.0,18950.0,22,14,18945,30,18950,62
2017-02-08 13:23:00,13:23:35,13:23:48,33827,33851,18945.0,40,18950.0,61,18945.0,18945.0,18945.0,18945.0,25,-25,18945,35,18950,62
2017-02-08 13:24:00,13:24:49,13:24:58,33870,33878,18945.0,18,18950.0,82,18945.0,18950.0,18945.0,18950.0,8,-6,18945,54,18950,81
2017-02-08 13:25:00,13:25:01,13:25:23,33881,33920,18945.0,54,18950.0,81,18945.0,18950.0,18945.0,18950.0,60,58,18945,67,18950,46
2017-02-08 13:26:00,13:26:01,13:26:58,33942,33968,18945.0,62,18950.0,57,18950.0,18950.0,18945.0,18945.0,31,-21,18945,37,18950,57
2017-02-08 13:27:00,13:27:05,13:27:59,33976,34046,18945.0,37,18950.0,69,18945.0,18945.0,18945.0,18945.0,63,-55,18945,28,18950,62
2017-02-08 13:28:00,13:28:12,13:28:29,34059,34174,18945.0,46,18950.0,55,18950.0,18950.0,18950.0,18950.0,154,154,18945,89,18950,14
2017-02-08 13:29:00,13:29:05,13:29:53,34191,34308,18945.0,89,18950.0,51,18950.0,18950.0,18945.0,18945.0,164,36,18940,69,18945,1
2017-02-08 13:30:00,13:30:02,13:30:59,34322,34427,18940.0,69,18945.0,24,18945.0,18950.0,18945.0,18950.0,122,-34,18945,89,18955,95
2017-02-08 13:31:00,13:31:00,13:31:58,34431,34502,18950.0,11,18955.0,95,18950.0,18955.0,18950.0,18950.0,31,4,18950,26,18955,87
2017-02-08 13:32:00,13:32:02,13:32:57,34506,34622,18950.0,46,18955.0,87,18950.0,18950.0,18945.0,18950.0,146,14,18945,90,18950,14
2017-02-08 13:33:00,13:33:00,13:33:58,34624,34712,18945.0,89,18950.0,14,18950.0,18950.0,18940.0,18940.0,81,-3,18945,2,18945,2
2017-02-08 13:34:00,13:34:01,13:34:12,34714,34732,18940.0,69,18945.0,2,18945.0,18950.0,18945.0,18945.0,4,0,18945,40,18950,64
2017-02-08 13:35:00,13:35:06,13:35:28,34756,34807,18945.0,34,18950.0,53,18945.0,18945.0,18940.0,18945.0,33,-31,18940,68,18945,12
2017-02-08 13:36:00,13:36:33,13:36:55,34847,34867,18940.0,63,18945.0,40,18940.0,18945.0,18940.0,18945.0,18,16,18940,71,18945,29
2017-02-08 13:37:00,13:37:10,13:37:33,34879,34899,18940.0,64,18945.0,38,18940.0,18945.0,18940.0,18945.0,8,6,18940,65,18945,23
2017-02-08 13:38:00,13:38:16,13:38:16,34921,34946,18940.0,69,18945.0,34,18945.0,18945.0,18945.0,18945.0,38,38,18940,78,18945,6
2017-02-08 13:39:00,13:39:16,13:39:47,34980,35011,18940.0,60,18945.0,42,18940.0,18945.0,18940.0,18945.0,18,14,18940,74,18945,7
2017-02-08 13:40:00,13:40:46,13:40:59,35044,35067,18940.0,65,18945.0,38,18945.0,18945.0,18945.0,18945.0,25,25,18940,77,18945,8
2017-02-08 13:41:00,13:41:28,13:41:47,35087,35109,18940.0,67,18945.0,34,18945.0,18945.0,18940.0,18940.0,8,4,18940,78,18945,14
2017-02-08 13:42:00,13:42:25,13:42:36,35128,35213,18940.0,78,18945.0,10,18945.0,18945.0,18940.0,18945.0,91,31,18945,21,18950,66
2017-02-08 13:43:00,13:43:02,13:43:02,35244,35250,18945.0,42,18950.0,60,18950.0,18950.0,18950.0,18950.0,12,12,18945,52,18950,46
2017-02-08 13:44:00,13:44:01,13:44:50,35289,35307,18945.0,54,18950.0,60,18945.0,18950.0,18945.0,18950.0,8,2,18945,53,18950,73
2017-02-08 13:45:00,13:45:05,13:45:54,35322,35398,18945.0,69,18950.0,47,18945.0,18950.0,18945.0,18950.0,47,41,18950,48,18955,50
2017-02-08 13:46:00,13:46:03,13:46:55,35412,35619,18950.0,76,18955.0,93,18955.0,18965.0,18955.0,18965.0,262,251,18960,34,18965,68
2017-02-08 13:47:00,13:47:00,13:47:54,35631,35803,18960.0,74,18965.0,35,18965.0,18970.0,18965.0,18965.0,193,35,18960,74,18965,35
2017-02-08 13:48:00,13:48:38,13:48:38,35840,35851,18960.0,93,18965.0,46,18965.0,18965.0,18965.0,18965.0,19,19,18965,7,18970,58
2017-02-08 13:49:00,13:49:13,13:49:59,35891,35989,18965.0,71,18970.0,60,18965.0,18970.0,18965.0,18965.0,134,-50,18960,90,18965,31
2017-02-08 13:50:00,13:50:06,13:50:59,36002,36120,18960.0,92,18965.0,34,18960.0,18970.0,18960.0,18970.0,131,129,18970,7,18975,97
2017-02-08 13:51:00,13:51:00,13:51:52,36125,36472,18970.0,12,18975.0,91,18970.0,18985.0,18970.0,18985.0,538,204,18980,44,18985,38
2017-02-08 13:52:00,13:52:01,13:52:56,36495,36696,18980.0,70,18985.0,28,18985.0,18985.0,18985.0,18985.0,210,124,18985,23,18990,87
2017-02-08 13:53:00,13:53:19,13:53:59,36729,36892,18985.0,34,18990.0,74,18990.0,18995.0,18985.0,18985.0,185,65,18985,136,18990,232
2017-02-08 13:54:00,13:54:31,13:54:55,36910,37101,18985.0,142,18990.0,240,18985.0,18985.0,18980.0,18985.0,452,-144,18985,33,18990,78
2017-02-08 13:55:00,13:55:13,13:55:58,37118,37206,18985.0,62,18990.0,47,18990.0,18990.0,18985.0,18985.0,95,35,18985,88,18985,9
2017-02-08 13:56:00,13:56:01,13:56:50,37208,37388,18985.0,88,18990.0,76,18985.0,18985.0,18985.0,18985.0,252,12,18985,29,18990,70
2017-02-08 13:57:00,13:57:00,13:57:48,37407,37552,18985.0,71,18990.0,67,18990.0,18990.0,18985.0,18990.0,154,146,18985,74,18990,66
2017-02-08 13:58:00,13:58:58,13:58:58,37595,37595,18985.0,72,18990.0,105,18990.0,18990.0,18990.0,18990.0,1,1,18985,71,18990,104
2017-02-08 13:59:00,13:59:01,13:59:59,37600,37814,18985.0,67,18990.0,109,18985.0,18990.0,18985.0,18990.0,226,-38,18985,131,18990,106
2017-02-08 14:00:00,14:00:00,14:00:57,37817,38155,18985.0,131,18990.0,106,18990.0,18990.0,18985.0,18990.0,860,-92,18985,189,18990,48
2017-02-08 14:01:00,14:01:00,14:01:27,38167,38279,18985.0,147,18990.0,107,18990.0,18995.0,18990.0,18990.0,238,-14,18985,166,18990,86
2017-02-08 14:02:00,14:02:09,14:02:56,38315,38519,18985.0,157,18990.0,133,18985.0,18995.0,18985.0,18995.0,345,63,18990,58,18995,225
2017-02-08 14:03:00,14:03:00,14:03:58,38529,38576,18990.0,96,18995.0,227,18995.0,18995.0,18990.0,18990.0,31,-19,18990,121,18995,240
2017-02-08 14:04:00,14:04:15,14:04:55,38586,38674,18990.0,129,18995.0,241,18995.0,18995.0,18990.0,18990.0,204,202,18990,117,18995,80
2017-02-08 14:05:00,14:05:00,14:05:49,38681,38733,18990.0,118,18995.0,83,18995.0,18995.0,18990.0,18990.0,12,-6,18990,105,18995,106
2017-02-08 14:06:00,14:06:00,14:06:41,38745,38817,18990.0,105,18995.0,112,18995.0,18995.0,18990.0,18990.0,33,-15,18990,87,18995,135
2017-02-08 14:07:00,14:07:10,14:07:40,38845,38945,18990.0,101,18995.0,131,18990.0,18995.0,18990.0,18995.0,189,179,18990,93,18995,122
2017-02-08 14:08:00,14:08:04,14:08:54,38976,39196,18990.0,180,18995.0,63,18990.0,18995.0,18985.0,18990.0,411,-153,18990,59,18995,118
2017-02-08 14:09:00,14:09:09,14:09:58,39226,39464,18990.0,135,18995.0,115,18990.0,18995.0,18980.0,18985.0,474,-240,18980,61,18985,32
