,ST,ET,sidx,eidx,bB,bBS,bA,bAS,O,H,L,C,V,OF,eB,eBS,eA,eAS
2017-02-23 08:00:00,08:00:00,08:00:56,1702,2074,19360.0,43,19365.0,28,19360.0,19370.0,19345.0,19345.0,345,-124,19340,35,19345,37
2017-02-23 08:01:00,08:01:00,08:01:59,2081,2273,19340.0,25,19345.0,58,19340.0,19345.0,19335.0,19340.0,140,28,19340,55,19345,41
2017-02-23 08:02:00,08:02:00,08:02:58,2275,2371,19340.0,55,19345.0,42,19345.0,19345.0,19340.0,19340.0,44,32,19340,53,19345,79
2017-02-23 08:03:00,08:03:00,08:03:59,2374,2525,19340.0,53,19345.0,79,19345.0,19345.0,19335.0,19335.0,147,-69,19335,38,19340,69
2017-02-23 08:04:00,08:04:18,08:04:58,2552,2758,19335.0,46,19340.0,76,19335.0,19335.0,19330.0,19330.0,298,-298,19330,33,19335,88
2017-02-23 08:05:00,08:05:00,08:05:51,2763,2946,19330.0,36,19335.0,88,19330.0,19330.0,19320.0,19320.0,180,4,19320,35,19325,74
2017-02-23 08:06:00,08:06:00,08:06:59,2952,3111,19320.0,35,19325.0,74,19320.0,19330.0,19320.0,19330.0,164,58,19330,48,19335,48
2017-02-23 08:07:00,08:07:00,08:07:48,3112,3216,19325.0,46,19330.0,39,19330.0,19335.0,19330.0,19330.0,42,8,19330,63,19335,17
2017-02-23 08:08:00,08:08:00,08:08:55,3221,3347,19330.0,63,19335.0,19,19330.0,19340.0,19330.0,19340.0,115,-27,19335,52,19340,41
2017-02-23 08:09:00,08:09:04,08:09:54,3356,3465,19335.0,58,19340.0,43,19335.0,19340.0,19330.0,19330.0,156,-140,19330,81,19335,44
2017-02-23 08:10:00,08:10:15,08:10:18,3485,3539,19330.0,98,19335.0,38,19335.0,19335.0,19335.0,19335.0,72,-4,19330,96,19335,12
2017-02-23 08:11:00,08:11:06,08:11:59,3569,3681,19330.0,101,19335.0,41,19330.0,19340.0,19330.0,19335.0,124,-48,19330,41,19335,28
2017-02-23 08:12:00,08:12:10,08:12:57,3694,3746,19330.0,46,19335.0,43,19330.0,19335.0,19330.0,19335.0,38,-34,19330,41,19335,39
2017-02-23 08:13:00,08:13:10,08:13:40,3754,3802,19330.0,50,19335.0,38,19335.0,19340.0,19335.0,19340.0,45,45,19335,50,19340,38
2017-02-23 08:14:00,08:14:00,08:14:56,3813,3887,19335.0,52,19340.0,41,19340.0,19340.0,19335.0,19340.0,47,-7,19340,34,19345,45
2017-02-23 08:15:00,08:15:00,08:15:40,3896,4049,19340.0,44,19345.0,40,19345.0,19345.0,19335.0,19335.0,127,-23,19335,21,19340,45
2017-02-23 08:16:00,08:16:33,08:16:57,4099,4145,19335.0,40,19340.0,33,19335.0,19335.0,19335.0,19335.0,26,-26,19335,28,19340,39
2017-02-23 08:17:00,08:17:00,08:17:27,4152,4287,19335.0,25,19340.0,43,19340.0,19345.0,19340.0,19345.0,128,42,19345,29,19350,29
2017-02-23 08:18:00,08:18:09,08:18:15,4317,4339,19345.0,42,19350.0,26,19345.0,19345.0,19345.0,19345.0,29,-29,19340,60,19345,24
2017-02-23 08:19:00,08:19:04,08:19:04,4391,4391,19340.0,49,19345.0,49,19345.0,19345.0,19345.0,19345.0,1,1,19340,56,19345,48
2017-02-23 08:20:00,08:20:00,08:20:54,4405,4601,19340.0,58,19345.0,47,19345.0,19345.0,19340.0,19340.0,212,35,19335,53,19340,17
2017-02-23 08:21:00,08:21:08,08:21:54,4612,4775,19335.0,57,19340.0,26,19340.0,19345.0,19335.0,19335.0,125,15,19335,6,19335,21
2017-02-23 08:22:00,08:22:03,08:22:55,4785,4829,19330.0,52,19335.0,33,19335.0,19335.0,19335.0,19335.0,27,19,19335,20,19340,41
2017-02-23 08:23:00,08:23:01,08:23:51,4834,4940,19335.0,17,19340.0,41,19335.0,19335.0,19335.0,19335.0,62,-22,19330,44,19335,18
2017-02-23 08:24:00,08:24:03,08:24:50,4956,5019,19330.0,48,19335.0,19,19335.0,19345.0,19335.0,19345.0,30,30,19340,30,19345,44
2017-02-23 08:25:00,08:25:01,08:25:58,5029,5283,19340.0,29,19345.0,45,19340.0,19345.0,19335.0,19340.0,243,83,19335,44,19345,52
2017-02-23 08:26:00,08:26:01,08:26:17,5287,5306,19335.0,46,19345.0,52,19340.0,19340.0,19340.0,19340.0,12,-8,19335,36,19340,21
2017-02-23 08:27:00,08:27:00,08:27:53,5330,5402,19335.0,25,19340.0,34,19335.0,19345.0,19335.0,19345.0,43,21,19335,31,19345,56
2017-02-23 08:28:00,08:28:01,08:28:45,5405,5428,19335.0,36,19340.0,3,19340.0,19340.0,19340.0,19340.0,2,2,19335,34,19340,19
2017-02-23 08:29:00,08:29:07,08:29:57,5439,5559,19335.0,35,19340.0,22,19340.0,19345.0,19340.0,19345.0,79,-3,19345,23,19350,28
2017-02-23 08:30:00,08:30:31,08:30:31,5603,5607,19345.0,39,19350.0,43,19350.0,19350.0,19350.0,19350.0,6,6,19345,49,19350,39
2017-02-23 08:31:00,08:31:04,08:31:47,5629,5730,19345.0,58,19350.0,29,19345.0,19345.0,19340.0,19340.0,79,-79,19340,24,19345,53
2017-02-23 08:32:00,08:32:00,08:32:50,5741,5839,19340.0,31,19345.0,52,19340.0,19345.0,19340.0,19345.0,84,18,19340,36,19345,23
2017-02-23 08:33:00,08:33:00,08:33:56,5847,5914,19340.0,35,19345.0,30,19340.0,19345.0,19340.0,19345.0,48,38,19340,36,19345,30
2017-02-23 08:34:00,08:34:28,08:34:58,5921,5964,19340.0,37,19345.0,21,19345.0,19345.0,19340.0,19340.0,12,-4,19340,28,19345,43
2017-02-23 08:35:00,08:35:02,08:35:50,5970,6061,19340.0,34,19345.0,34,19340.0,19340.0,19335.0,19335.0,62,-34,19335,30,19340,40
2017-02-23 08:36:00,08:36:04,08:36:15,6067,6118,19335.0,29,19340.0,40,19335.0,19335.0,19330.0,19335.0,43,-5,19330,35,19335,4
2017-02-23 08:37:00,08:37:00,08:37:44,6138,6184,19330.0,35,19335.0,29,19330.0,19330.0,19330.0,19330.0,14,-14,19330,32,19335,36
2017-02-23 08:38:00,08:38:00,08:38:52,6197,6239,19330.0,35,19335.0,32,19330.0,19335.0,19330.0,19335.0,21,13,19335,22,19340,50
2017-02-23 08:39:00,08:39:04,08:39:46,6260,6355,19335.0,23,19340.0,40,19335.0,19335.0,19330.0,19330.0,73,-73,19330,28,19335,40
2017-02-23 08:40:00,08:40:48,08:40:51,6392,6403,19330.0,28,19335.0,41,19330.0,19335.0,19330.0,19330.0,11,-9,19330,22,19335,43
2017-02-23 08:41:00,08:41:23,08:41:41,6426,6441,19330.0,32,19335.0,39,19330.0,19330.0,19330.0,19330.0,2,-2,19330,21,19335,43
2017-02-23 08:42:00,08:42:06,08:42:55,6455,6518,19330.0,36,19335.0,33,19335.0,19335.0,19330.0,19335.0,73,-1,19335,74,19340,50
2017-02-23 08:43:00,08:43:05,08:43:46,6527,6547,19335.0,78,19340.0,51,19335.0,19335.0,19335.0,19335.0,36,-36,19335,41,19340,53
2017-02-23 08:44:00,08:44:04,08:44:45,6557,6576,19335.0,45,19340.0,48,19340.0,19340.0,19340.0,19340.0,2,2,19335,42,19340,49
2017-02-23 08:45:00,08:45:25,08:45:53,6582,6672,19335.0,42,19340.0,58,19335.0,19340.0,19335.0,19335.0,89,27,19330,44,19335,17
2017-02-23 08:46:00,08:46:00,08:46:53,6689,6756,19330.0,45,19335.0,31,19335.0,19335.0,19335.0,19335.0,48,22,19335,6,19340,60
2017-02-23 08:47:00,08:47:16,08:47:31,6767,6778,19335.0,29,19340.0,61,19335.0,19335.0,19335.0,19335.0,6,-6,19335,12,19340,61
2017-02-23 08:48:00,08:48:17,08:48:42,6796,6808,19335.0,9,19340.0,62,19335.0,19335.0,19330.0,19330.0,10,-10,19330,46,19335,29
2017-02-23 08:49:00,08:49:17,08:49:38,6825,6878,19330.0,43,19335.0,37,19335.0,19335.0,19335.0,19335.0,57,31,19330,50,19340,56
2017-02-23 08:50:00,08:50:29,08:50:33,6898,6915,19330.0,47,19335.0,26,19335.0,19335.0,19335.0,19335.0,13,5,19335,16,19340,56
2017-02-23 08:51:00,08:51:13,08:51:59,6944,7022,19335.0,6,19340.0,59,19335.0,19335.0,19330.0,19335.0,40,-12,19335,4,19340,58
2017-02-23 08:52:00,08:52:09,08:52:48,7033,7066,19335.0,6,19340.0,60,19335.0,19335.0,19335.0,19335.0,17,3,19330,46,19335,7
2017-02-23 08:53:00,08:53:22,08:53:59,7086,7136,19330.0,46,19335.0,24,19330.0,19330.0,19330.0,19330.0,44,-9,19325,49,19330,4
2017-02-23 08:54:00,08:54:01,08:54:58,7142,7428,19325.0,43,19330.0,13,19330.0,19330.0,19320.0,19320.0,310,-70,19320,22,19325,32
2017-02-23 08:55:00,08:55:02,08:55:55,7435,7978,19320.0,26,19325.0,38,19320.0,19320.0,19290.0,19290.0,678,-154,19290,41,19295,41
2017-02-23 08:56:00,08:56:00,08:56:55,7987,8244,19290.0,43,19295.0,54,19290.0,19300.0,19290.0,19290.0,304,2,19285,60,19290,25
2017-02-23 08:57:00,08:57:02,08:57:58,8254,8451,19285.0,62,19290.0,32,19285.0,19295.0,19285.0,19285.0,203,43,19285,61,19290,30
2017-02-23 08:58:00,08:58:01,08:58:59,8458,8708,19285.0,61,19290.0,28,19290.0,19295.0,19280.0,19280.0,296,-220,19280,13,19285,54
2017-02-23 08:59:00,08:59:00,08:59:41,8709,9095,19280.0,33,19285.0,62,19280.0,19280.0,19275.0,19275.0,532,-91,19275,22,19280,55
2017-02-23 09:00:00,09:00:02,09:00:59,9122,9708,19275.0,42,19280.0,46,19275.0,19280.0,19255.0,19260.0,858,-412,19255,50,19260,60
2017-02-23 09:01:00,09:01:00,09:01:53,9712,10155,19255.0,46,19260.0,60,19255.0,19265.0,19250.0,19265.0,656,233,19265,32,19270,69
2017-02-23 09:02:00,09:02:05,09:02:56,10173,10316,19265.0,36,19270.0,67,19265.0,19270.0,19260.0,19260.0,139,67,19260,38,19265,45
2017-02-23 09:03:00,09:03:00,09:03:57,10325,10578,19260.0,45,19265.0,45,19260.0,19265.0,19260.0,19260.0,250,52,19260,45,19265,33
2017-02-23 09:04:00,09:04:00,09:04:55,10583,10861,19260.0,45,19265.0,37,19260.0,19265.0,19255.0,19260.0,289,137,19260,36,19265,34
2017-02-23 09:05:00,09:05:00,09:05:59,10869,11135,19260.0,41,19265.0,35,19260.0,19270.0,19255.0,19260.0,251,45,19260,42,19260,7
2017-02-23 09:06:00,09:06:01,09:06:55,11137,11371,19260.0,42,19265.0,43,19260.0,19260.0,19250.0,19250.0,221,-51,19250,38,19255,48
2017-02-23 09:07:00,09:07:00,09:07:55,11379,11726,19250.0,47,19255.0,47,19255.0,19255.0,19240.0,19250.0,407,-108,19250,42,19255,45
2017-02-23 09:08:00,09:08:05,09:08:59,11738,11869,19250.0,41,19255.0,52,19250.0,19255.0,19250.0,19255.0,109,43,19255,23,19260,59
2017-02-23 09:09:00,09:09:00,09:09:57,11872,12009,19255.0,23,19260.0,59,19255.0,19255.0,19250.0,19250.0,53,-7,19250,38,19255,47
2017-02-23 09:10:00,09:10:07,09:10:58,12022,12121,19250.0,35,19255.0,56,19250.0,19255.0,19250.0,19250.0,63,15,19250,46,19255,52
2017-02-23 09:11:00,09:11:08,09:11:54,12134,12330,19250.0,58,19255.0,47,19250.0,19255.0,19250.0,19255.0,212,-18,19250,51,19260,81
2017-02-23 09:12:00,09:12:05,09:12:50,12345,12458,19255.0,38,19260.0,81,19260.0,19260.0,19255.0,19260.0,151,125,19255,64,19260,35
2017-02-23 09:13:00,09:13:03,09:13:54,12471,12558,19255.0,70,19260.0,23,19255.0,19260.0,19255.0,19255.0,63,5,19255,79,19260,57
2017-02-23 09:14:00,09:14:14,09:14:52,12569,12681,19255.0,82,19260.0,71,19255.0,19260.0,19255.0,19260.0,219,53,19255,76,19260,58
2017-02-23 09:15:00,09:15:01,09:15:58,12688,12818,19255.0,77,19260.0,59,19260.0,19265.0,19255.0,19260.0,141,75,19255,89,19260,43
2017-02-23 09:16:00,09:16:05,09:16:53,12830,12909,19255.0,75,19260.0,103,19260.0,19260.0,19255.0,19260.0,135,107,19260,40,19265,64
2017-02-23 09:17:00,09:17:01,09:17:47,12918,13039,19260.0,41,19265.0,92,19265.0,19265.0,19260.0,19260.0,142,32,19255,103,19260,30
2017-02-23 09:18:00,09:18:02,09:18:37,13055,13129,19255.0,112,19260.0,28,19260.0,19265.0,19260.0,19265.0,105,33,19265,29,19270,72
2017-02-23 09:19:00,09:19:49,09:19:57,13186,13193,19265.0,40,19270.0,90,19270.0,19270.0,19265.0,19265.0,2,0,19265,36,19270,89
2017-02-23 09:20:00,09:20:11,09:20:51,13201,13249,19265.0,49,19270.0,90,19265.0,19270.0,19265.0,19265.0,27,19,19265,71,19270,76
2017-02-23 09:21:00,09:21:04,09:21:58,13264,13346,19265.0,76,19270.0,75,19265.0,19270.0,19265.0,19265.0,30,12,19265,74,19270,73
2017-02-23 09:22:00,09:22:16,09:22:35,13356,13411,19265.0,76,19270.0,103,19265.0,19265.0,19265.0,19265.0,94,-68,19265,29,19270,64
2017-02-23 09:23:00,09:23:06,09:23:59,13428,13530,19265.0,30,19270.0,72,19265.0,19265.0,19265.0,19265.0,75,-53,19265,11,19270,66
2017-02-23 09:24:00,09:24:01,09:24:59,13535,13684,19265.0,21,19270.0,73,19270.0,19280.0,19265.0,19275.0,191,141,19275,23,19280,49
2017-02-23 09:25:00,09:25:00,09:25:56,13688,13742,19275.0,21,19280.0,49,19280.0,19280.0,19275.0,19275.0,14,-4,19275,41,19280,62
2017-02-23 09:26:00,09:26:04,09:26:45,13749,13944,19275.0,52,19280.0,62,19280.0,19285.0,19270.0,19270.0,260,10,19270,20,19275,57
2017-02-23 09:27:00,09:27:04,09:27:35,13957,14024,19270.0,55,19275.0,57,19270.0,19280.0,19270.0,19275.0,44,38,19275,29,19280,63
2017-02-23 09:28:00,09:28:05,09:28:52,14035,14091,19275.0,103,19280.0,36,19275.0,19280.0,19275.0,19280.0,41,15,19280,51,19285,73
2017-02-23 09:29:00,09:29:25,09:29:57,14115,14237,19280.0,53,19285.0,73,19280.0,19280.0,19275.0,19280.0,116,26,19275,82,19280,40
2017-02-23 09:30:00,09:30:01,09:30:53,14241,14350,19275.0,81,19280.0,43,19280.0,19280.0,19275.0,19275.0,81,-18,19275,39,19280,68
2017-02-23 09:31:00,09:31:03,09:31:54,14359,14420,19275.0,60,19280.0,50,19275.0,19275.0,19270.0,19270.0,38,-28,19270,83,19275,52
2017-02-23 09:32:00,09:32:04,09:32:55,14428,14491,19270.0,84,19275.0,50,19270.0,19275.0,19270.0,19270.0,42,6,19270,73,19275,46
2017-02-23 09:33:00,09:33:05,09:33:56,14494,14600,19270.0,73,19275.0,46,19270.0,19280.0,19270.0,19275.0,83,55,19275,68,19280,67
2017-02-23 09:34:00,09:34:06,09:34:57,14609,14717,19275.0,70,19280.0,69,19275.0,19280.0,19275.0,19275.0,63,21,19275,83,19280,54
2017-02-23 09:35:00,09:35:07,09:35:58,14724,14884,19275.0,64,19280.0,71,19275.0,19275.0,19265.0,19270.0,213,-205,19270,44,19275,67
2017-02-23 09:36:00,09:36:06,09:36:12,14891,14937,19270.0,44,19275.0,67,19270.0,19270.0,19270.0,19270.0,55,-33,19265,73,19270,12
2017-02-23 09:37:00,09:37:09,09:37:49,14979,15071,19265.0,70,19270.0,51,19270.0,19275.0,19270.0,19275.0,111,57,19270,59,19280,64
2017-02-23 09:38:00,09:38:09,09:38:37,15089,15128,19270.0,58,19275.0,28,19275.0,19275.0,19270.0,19270.0,18,-6,19270,21,19275,97
2017-02-23 09:39:00,09:39:29,09:39:55,15154,15220,19270.0,58,19275.0,84,19275.0,19275.0,19275.0,19275.0,106,60,19270,58,19280,56
2017-02-23 09:40:00,09:40:07,09:40:52,15234,15427,19275.0,39,19280.0,53,19280.0,19290.0,19280.0,19285.0,237,65,19280,42,19285,25
2017-02-23 09:41:00,09:41:15,09:41:47,15453,15513,19280.0,41,19285.0,53,19285.0,19285.0,19280.0,19285.0,57,51,19280,62,19285,20
2017-02-23 09:42:00,09:42:07,09:42:27,15533,15652,19280.0,27,19285.0,64,19280.0,19280.0,19275.0,19275.0,125,-45,19275,27,19280,52
2017-02-23 09:43:00,09:43:03,09:43:54,15682,15744,19275.0,80,19280.0,26,19280.0,19280.0,19280.0,19280.0,52,8,19275,115,19280,37
2017-02-23 09:44:00,09:44:11,09:44:59,15757,15882,19275.0,114,19280.0,24,19275.0,19280.0,19275.0,19280.0,102,35,19280,25,19285,64
2017-02-23 09:45:00,09:45:25,09:45:32,15921,15962,19280.0,13,19285.0,76,19280.0,19280.0,19280.0,19280.0,43,-41,19280,25,19285,60
2017-02-23 09:46:00,09:46:07,09:46:55,15987,16023,19280.0,43,19285.0,55,19280.0,19280.0,19280.0,19280.0,12,-12,19280,57,19285,38
2017-02-23 09:47:00,09:47:00,09:47:00,0,0,0.0,0,0.0,0,19280.0,19280.0,19280.0,19280.0,0,0,0,0,0,0
2017-02-23 09:48:00,09:48:18,09:48:18,16051,16051,19280.0,56,19285.0,43,19280.0,19280.0,19280.0,19280.0,1,-1,19280,57,19285,42
2017-02-23 09:49:00,09:49:08,09:49:46,16068,16099,19280.0,42,19285.0,57,19285.0,19285.0,19280.0,19280.0,8,-2,19280,55,19285,39
2017-02-23 09:50:00,09:50:06,09:50:06,16108,16108,19280.0,39,19285.0,57,19285.0,19285.0,19285.0,19285.0,1,1,19280,41,19285,54
2017-02-23 09:51:00,09:51:03,09:51:20,16139,16192,19280.0,48,19285.0,55,19280.0,19290.0,19280.0,19285.0,69,-5,19280,53,19285,18
2017-02-23 09:52:00,09:52:17,09:52:17,16227,16227,19280.0,51,19285.0,36,19280.0,19280.0,19280.0,19280.0,1,-1,19280,50,19285,34
2017-02-23 09:53:00,09:53:24,09:53:58,16263,16324,19280.0,46,19285.0,51,19280.0,19280.0,19275.0,19275.0,52,-52,19270,55,19275,44
2017-02-23 09:54:00,09:54:21,09:54:59,16336,16357,19270.0,57,19275.0,56,19275.0,19275.0,19270.0,19270.0,6,0,19270,54,19275,54
2017-02-23 09:55:00,09:55:08,09:55:24,16365,16422,19270.0,57,19275.0,43,19275.0,19275.0,19275.0,19275.0,96,32,19275,39,19280,64
2017-02-23 09:56:00,09:56:01,09:56:58,16435,16500,19275.0,30,19280.0,80,19275.0,19275.0,19275.0,19275.0,40,-36,19275,11,19280,74
2017-02-23 09:57:00,09:57:18,09:57:27,16509,16510,19275.0,29,19280.0,77,19275.0,19275.0,19275.0,19275.0,2,-2,19275,35,19280,78
2017-02-23 09:58:00,09:58:09,09:58:22,16524,16566,19275.0,12,19280.0,78,19275.0,19275.0,19270.0,19270.0,43,-43,19270,26,19275,40
2017-02-23 09:59:00,09:59:18,09:59:40,16595,16598,19270.0,49,19275.0,38,19270.0,19270.0,19270.0,19270.0,2,-2,19270,48,19275,36
2017-02-23 10:00:00,10:00:10,10:00:51,16616,16666,19270.0,47,19275.0,39,19270.0,19275.0,19270.0,19275.0,38,32,19275,25,19280,84
2017-02-23 10:01:00,10:01:10,10:01:49,16684,16806,19275.0,73,19280.0,48,19280.0,19280.0,19280.0,19280.0,138,38,19280,9,19285,82
2017-02-23 10:02:00,10:02:03,10:02:40,16816,17097,19280.0,25,19285.0,76,19280.0,19300.0,19280.0,19300.0,407,183,19295,46,19300,58
2017-02-23 10:03:00,10:03:09,10:03:56,17123,17274,19295.0,24,19300.0,69,19300.0,19300.0,19295.0,19295.0,155,89,19295,19,19300,66
2017-02-23 10:04:00,10:04:33,10:04:59,17307,17489,19295.0,57,19300.0,55,19300.0,19310.0,19300.0,19305.0,234,104,19300,118,19305,7
2017-02-23 10:05:00,10:05:00,10:05:15,17490,17547,19300.0,117,19305.0,14,19305.0,19310.0,19305.0,19310.0,53,53,19305,43,19310,46
2017-02-23 10:06:00,10:06:00,10:06:51,17586,17717,19305.0,38,19310.0,59,19310.0,19310.0,19305.0,19305.0,109,-29,19300,127,19305,6
2017-02-23 10:07:00,10:07:05,10:07:45,17732,17782,19300.0,114,19305.0,62,19305.0,19305.0,19300.0,19305.0,63,11,19305,2,19305,12
2017-02-23 10:08:00,10:08:07,10:08:51,17807,17867,19300.0,114,19305.0,19,19305.0,19305.0,19305.0,19305.0,47,1,19300,122,19305,10
2017-02-23 10:09:00,10:09:10,10:09:52,17873,18151,19305.0,9,19310.0,54,19305.0,19305.0,19290.0,19295.0,423,-191,19290,60,19300,85
2017-02-23 10:10:00,10:10:54,10:10:57,18183,18226,19290.0,44,19295.0,60,19290.0,19290.0,19290.0,19290.0,61,-9,19285,62,19290,14
2017-02-23 10:11:00,10:11:13,10:11:43,18246,18338,19285.0,62,19290.0,12,19290.0,19290.0,19290.0,19290.0,70,34,19285,62,19290,14
2017-02-23 10:12:00,10:12:08,10:12:51,18352,18375,19285.0,60,19290.0,35,19285.0,19290.0,19285.0,19290.0,6,-2,19285,65,19290,27
2017-02-23 10:13:00,10:13:11,10:13:55,18386,18420,19285.0,69,19290.0,28,19290.0,19290.0,19290.0,19290.0,16,0,19285,73,19290,2
2017-02-23 10:14:00,10:14:04,10:14:56,18429,18542,19285.0,73,19290.0,16,19290.0,19290.0,19290.0,19290.0,170,86,19285,66,19295,62
2017-02-23 10:15:00,10:15:41,10:15:41,18583,18583,19285.0,64,19290.0,36,19290.0,19290.0,19290.0,19290.0,1,1,19285,66,19290,35
2017-02-23 10:16:00,10:16:21,10:16:22,18604,18656,19285.0,63,19290.0,32,19290.0,19290.0,19290.0,19290.0,75,67,19285,66,19290,13
2017-02-23 10:17:00,10:17:38,10:17:49,18692,18770,19285.0,58,19290.0,31,19290.0,19295.0,19290.0,19295.0,96,95,19290,35,19295,32
2017-02-23 10:18:00,10:18:36,10:18:51,18801,18817,19290.0,64,19295.0,29,19295.0,19295.0,19295.0,19295.0,15,-3,19290,67,19295,21
2017-02-23 10:19:00,10:19:00,10:19:35,18827,18910,19290.0,64,19295.0,40,19295.0,19295.0,19290.0,19290.0,72,-62,19285,67,19290,13
2017-02-23 10:20:00,10:20:01,10:20:18,18923,18967,19285.0,64,19290.0,34,19290.0,19290.0,19290.0,19290.0,39,4,19285,64,19290,15
2017-02-23 10:21:00,10:21:18,10:21:54,18995,19137,19285.0,54,19290.0,41,19290.0,19295.0,19290.0,19295.0,187,5,19295,4,19300,65
2017-02-23 10:22:00,10:22:08,10:22:49,19146,19260,19295.0,34,19300.0,83,19295.0,19305.0,19295.0,19305.0,146,32,19300,60,19305,3
2017-02-23 10:23:00,10:23:03,10:23:51,19266,19376,19300.0,60,19305.0,14,19305.0,19310.0,19305.0,19310.0,103,41,19305,70,19310,26
2017-02-23 10:24:00,10:24:37,10:24:43,19393,19398,19305.0,70,19310.0,45,19305.0,19310.0,19305.0,19310.0,3,-1,19305,70,19310,46
2017-02-23 10:25:00,10:25:03,10:25:55,19406,19651,19305.0,69,19310.0,51,19310.0,19310.0,19295.0,19295.0,317,-1,19290,72,19295,11
2017-02-23 10:26:00,10:26:12,10:26:12,19669,19674,19290.0,66,19295.0,8,19295.0,19295.0,19295.0,19295.0,8,8,19295,48,19300,33
2017-02-23 10:27:00,10:27:23,10:27:23,19703,19703,19295.0,62,19300.0,21,19295.0,19295.0,19295.0,19295.0,1,-1,19295,68,19300,20
2017-02-23 10:28:00,10:28:41,10:28:58,19743,19830,19295.0,42,19300.0,56,19300.0,19300.0,19300.0,19300.0,89,67,19300,35,19305,57
2017-02-23 10:29:00,10:29:40,10:29:58,19847,19884,19300.0,28,19305.0,59,19300.0,19300.0,19295.0,19295.0,30,-28,19295,49,19300,44
2017-02-23 10:30:00,10:30:00,10:30:39,19888,19929,19295.0,53,19300.0,45,19295.0,19300.0,19295.0,19300.0,17,9,19300,32,19305,43
2017-02-23 10:31:00,10:31:02,10:31:03,19942,19969,19300.0,28,19305.0,55,19300.0,19300.0,19300.0,19300.0,62,-62,19295,72,19305,56
2017-02-23 10:32:00,10:32:50,10:32:50,20005,20005,19295.0,49,19300.0,60,19295.0,19295.0,19295.0,19295.0,1,-1,19295,48,19300,61
2017-02-23 10:33:00,10:33:21,10:33:32,20011,20053,19295.0,51,19300.0,61,19295.0,19295.0,19295.0,19295.0,71,-61,19295,20,19300,57
2017-02-23 10:34:00,10:34:04,10:34:04,20066,20075,19295.0,38,19300.0,50,19300.0,19300.0,19300.0,19300.0,13,13,19295,35,19300,35
2017-02-23 10:35:00,10:35:03,10:35:03,20098,20130,19295.0,44,19300.0,55,19295.0,19295.0,19295.0,19295.0,46,-36,19290,62,19300,58
2017-02-23 10:36:00,10:36:47,10:36:47,20160,20160,19295.0,28,19300.0,55,19295.0,19295.0,19295.0,19295.0,1,-1,19295,27,19300,54
2017-02-23 10:37:00,10:37:00,10:37:00,0,0,0.0,0,0.0,0,19295.0,19295.0,19295.0,19295.0,0,0,0,0,0,0
2017-02-23 10:38:00,10:38:06,10:38:06,20176,20176,19295.0,39,19300.0,57,19295.0,19295.0,19295.0,19295.0,1,-1,19295,38,19300,56
2017-02-23 10:39:00,10:39:59,10:39:59,20191,20191,19295.0,44,19300.0,57,19300.0,19300.0,19300.0,19300.0,1,1,19295,43,19300,56
2017-02-23 10:40:00,10:40:09,10:40:58,20193,20232,19295.0,44,19300.0,56,19300.0,19300.0,19295.0,19300.0,31,29,19300,35,19305,47
2017-02-23 10:41:00,10:41:00,10:41:38,20238,20315,19300.0,46,19305.0,45,19305.0,19305.0,19300.0,19300.0,61,-21,19300,10,19305,57
2017-02-23 10:42:00,10:42:00,10:42:00,0,0,0.0,0,0.0,0,19300.0,19300.0,19300.0,19300.0,0,0,0,0,0,0
2017-02-23 10:43:00,10:43:00,10:43:00,0,0,0.0,0,0.0,0,19300.0,19300.0,19300.0,19300.0,0,0,0,0,0,0
2017-02-23 10:44:00,10:44:15,10:44:15,20363,20363,19300.0,59,19305.0,40,19300.0,19300.0,19300.0,19300.0,1,-1,19300,58,19305,39
2017-02-23 10:45:00,10:45:10,10:45:42,20384,20473,19300.0,25,19305.0,59,19300.0,19300.0,19300.0,19300.0,61,-23,19300,3,19305,58
2017-02-23 10:46:00,10:46:00,10:46:00,0,0,0.0,0,0.0,0,19300.0,19300.0,19300.0,19300.0,0,0,0,0,0,0
2017-02-23 10:47:00,10:47:52,10:47:52,20520,20520,19300.0,51,19305.0,43,19300.0,19300.0,19300.0,19300.0,1,-1,19300,50,19305,42
2017-02-23 10:48:00,10:48:00,10:48:00,0,0,0.0,0,0.0,0,19300.0,19300.0,19300.0,19300.0,0,0,0,0,0,0
2017-02-23 10:49:00,10:49:13,10:49:59,20539,20574,19300.0,58,19305.0,56,19300.0,19305.0,19300.0,19305.0,36,32,19305,47,19310,70
2017-02-23 10:50:00,10:50:00,10:50:55,20576,21200,19305.0,47,19310.0,69,19305.0,19360.0,19305.0,19325.0,952,682,19320,68,19325,6
2017-02-23 10:51:00,10:51:08,10:51:51,21214,21336,19320.0,62,19325.0,29,19320.0,19330.0,19320.0,19325.0,104,-12,19325,15,19330,56
2017-02-23 10:52:00,10:52:00,10:52:52,21346,21422,19325.0,29,19330.0,53,19325.0,19325.0,19325.0,19325.0,58,-3,19325,19,19330,104
2017-02-23 10:53:00,10:53:08,10:53:55,21429,21495,19325.0,13,19330.0,103,19325.0,19325.0,19320.0,19320.0,71,-25,19320,70,19325,32
2017-02-23 10:54:00,10:54:00,10:54:00,0,0,0.0,0,0.0,0,19320.0,19320.0,19320.0,19320.0,0,0,0,0,0,0
2017-02-23 10:55:00,10:55:03,10:55:59,21510,21642,19320.0,76,19325.0,38,19325.0,19325.0,19315.0,19320.0,203,-77,19320,13,19325,45
2017-02-23 10:56:00,10:56:01,10:56:27,21650,21698,19320.0,49,19325.0,33,19325.0,19325.0,19325.0,19325.0,55,-1,19320,67,19325,25
2017-02-23 10:57:00,10:57:00,10:57:00,21724,21724,19320.0,71,19325.0,32,19325.0,19325.0,19325.0,19325.0,1,1,19320,72,19325,30
2017-02-23 10:58:00,10:58:21,10:58:24,21744,21762,19320.0,74,19325.0,13,19325.0,19325.0,19325.0,19325.0,28,28,19325,33,19330,105
2017-02-23 10:59:00,10:59:14,10:59:33,21777,21805,19325.0,43,19330.0,102,19325.0,19330.0,19325.0,19325.0,21,-19,19325,12,19330,107
2017-02-23 11:00:00,11:00:02,11:00:28,21831,21937,19325.0,45,19330.0,102,19325.0,19325.0,19325.0,19325.0,94,-58,19320,74,19330,104
2017-02-23 11:01:00,11:01:04,11:01:49,21957,21976,19325.0,39,19330.0,95,19330.0,19330.0,19325.0,19330.0,4,2,19325,49,19330,95
2017-02-23 11:02:00,11:02:06,11:02:40,21984,22071,19325.0,40,19330.0,96,19330.0,19335.0,19330.0,19330.0,120,38,19330,33,19335,72
2017-02-23 11:03:00,11:03:06,11:03:20,22087,22096,19330.0,81,19335.0,66,19335.0,19335.0,19335.0,19335.0,2,2,19330,87,19335,61
2017-02-23 11:04:00,11:04:01,11:04:58,22116,22143,19330.0,88,19335.0,70,19330.0,19335.0,19330.0,19335.0,4,2,19330,99,19335,62
2017-02-23 11:05:00,11:05:06,11:05:52,22149,22167,19330.0,100,19335.0,62,19335.0,19335.0,19330.0,19335.0,4,2,19330,107,19335,61
2017-02-23 11:06:00,11:06:10,11:06:56,22172,22219,19330.0,107,19335.0,62,19335.0,19335.0,19330.0,19330.0,48,44,19330,100,19335,18
2017-02-23 11:07:00,11:07:03,11:07:56,22232,22344,19330.0,102,19335.0,17,19335.0,19340.0,19335.0,19335.0,108,10,19335,16,19340,48
2017-02-23 11:08:00,11:08:00,11:08:55,22353,22566,19335.0,46,19340.0,49,19340.0,19340.0,19330.0,19335.0,235,-129,19330,80,19335,9
2017-02-23 11:09:00,11:09:01,11:09:59,22569,22743,19330.0,81,19335.0,8,19335.0,19335.0,19330.0,19335.0,163,-51,19335,6,19340,65
2017-02-23 11:10:00,11:10:16,11:10:55,22764,22859,19335.0,3,19340.0,65,19340.0,19340.0,19330.0,19335.0,96,-26,19330,58,19335,30
2017-02-23 11:11:00,11:11:05,11:11:56,22873,22917,19330.0,59,19335.0,37,19335.0,19335.0,19330.0,19335.0,16,14,19330,58,19335,37
2017-02-23 11:12:00,11:12:05,11:12:26,22925,22948,19330.0,60,19335.0,34,19335.0,19335.0,19330.0,19335.0,7,5,19330,60,19335,33
2017-02-23 11:13:00,11:13:07,11:13:52,22960,23033,19330.0,74,19335.0,34,19335.0,19340.0,19335.0,19340.0,49,-17,19335,40,19340,69
2017-02-23 11:14:00,11:14:03,11:14:50,23043,23106,19335.0,29,19340.0,58,19340.0,19340.0,19335.0,19335.0,38,-30,19330,67,19335,3
2017-02-23 11:15:00,11:15:03,11:15:57,23121,23275,19330.0,64,19335.0,45,19335.0,19335.0,19330.0,19330.0,157,-97,19325,71,19330,3
2017-02-23 11:16:00,11:16:06,11:16:56,23282,23426,19325.0,73,19330.0,9,19330.0,19330.0,19320.0,19325.0,215,-173,19320,42,19325,27
2017-02-23 11:17:00,11:17:00,11:17:49,23436,23576,19320.0,68,19325.0,25,19325.0,19330.0,19315.0,19330.0,155,49,19325,57,19330,37
2017-02-23 11:18:00,11:18:08,11:18:53,23582,23671,19325.0,59,19330.0,38,19330.0,19330.0,19325.0,19325.0,96,-80,19325,11,19330,56
2017-02-23 11:19:00,11:19:03,11:19:56,23679,23801,19325.0,19,19330.0,57,19330.0,19330.0,19320.0,19320.0,117,-29,19315,70,19320,1
2017-02-23 11:20:00,11:20:08,11:20:51,23807,23877,19315.0,69,19320.0,17,19320.0,19320.0,19320.0,19320.0,34,24,19315,70,19320,4
2017-02-23 11:21:00,11:21:05,11:21:54,23887,23972,19315.0,72,19320.0,9,19320.0,19325.0,19320.0,19320.0,69,-30,19315,76,19320,2
2017-02-23 11:22:00,11:22:04,11:22:55,23979,24063,19315.0,77,19320.0,6,19320.0,19320.0,19315.0,19315.0,107,-9,19315,12,19320,49
2017-02-23 11:23:00,11:23:01,11:23:58,24070,24142,19315.0,9,19320.0,51,19315.0,19320.0,19315.0,19320.0,33,1,19315,39,19320,31
2017-02-23 11:24:00,11:24:13,11:24:55,24146,24171,19315.0,40,19320.0,31,19320.0,19320.0,19315.0,19315.0,10,4,19315,46,19320,29
2017-02-23 11:25:00,11:25:14,11:25:59,24180,24233,19315.0,50,19320.0,29,19320.0,19320.0,19315.0,19320.0,24,22,19315,46,19320,20
2017-02-23 11:26:00,11:26:05,11:26:57,24240,24270,19315.0,48,19320.0,27,19320.0,19320.0,19320.0,19320.0,11,11,19315,46,19320,40
2017-02-23 11:27:00,11:27:00,11:27:58,24274,24328,19315.0,46,19320.0,43,19320.0,19320.0,19315.0,19320.0,21,19,19315,46,19320,21
2017-02-23 11:28:00,11:28:08,11:28:59,24335,24414,19315.0,46,19320.0,30,19320.0,19320.0,19315.0,19320.0,51,49,19315,52,19320,22
2017-02-23 11:29:00,11:29:08,11:29:45,24417,24452,19315.0,53,19320.0,26,19320.0,19320.0,19320.0,19320.0,9,9,19315,33,19320,41
2017-02-23 11:30:00,11:30:00,11:30:40,24456,24631,19315.0,34,19320.0,41,19315.0,19320.0,19315.0,19315.0,162,-80,19310,65,19320,52
2017-02-23 11:31:00,11:31:20,11:31:44,24647,24680,19310.0,64,19315.0,27,19315.0,19320.0,19315.0,19320.0,20,18,19315,47,19320,39
2017-02-23 11:32:00,11:32:02,11:32:40,24685,24751,19315.0,48,19320.0,42,19320.0,19325.0,19320.0,19325.0,63,53,19320,43,19325,62
2017-02-23 11:33:00,11:33:28,11:33:50,24771,24810,19320.0,47,19325.0,63,19325.0,19330.0,19325.0,19330.0,29,29,19325,44,19330,53
2017-02-23 11:34:00,11:34:10,11:34:11,24827,24853,19325.0,43,19330.0,63,19325.0,19325.0,19325.0,19325.0,62,-62,19320,31,19325,35
2017-02-23 11:35:00,11:35:05,11:35:18,24870,24942,19320.0,55,19325.0,42,19320.0,19320.0,19320.0,19320.0,92,-88,19320,21,19325,45
2017-02-23 11:36:00,11:36:18,11:36:50,24995,25075,19320.0,18,19325.0,62,19320.0,19320.0,19320.0,19320.0,51,-15,19320,21,19325,53
2017-02-23 11:37:00,11:37:03,11:37:44,25089,25194,19320.0,24,19325.0,61,19320.0,19320.0,19315.0,19315.0,85,-15,19310,53,19320,48
2017-02-23 11:38:00,11:38:03,11:38:48,25210,25290,19310.0,56,19315.0,16,19315.0,19315.0,19315.0,19315.0,64,-31,19310,57,19315,18
2017-02-23 11:39:00,11:39:42,11:39:45,25314,25325,19310.0,60,19315.0,6,19315.0,19315.0,19315.0,19315.0,14,-2,19310,61,19315,3
2017-02-23 11:40:00,11:40:07,11:40:59,25342,25491,19310.0,60,19315.0,43,19310.0,19310.0,19305.0,19305.0,137,-36,19300,59,19305,15
2017-02-23 11:41:00,11:41:23,11:41:43,25518,25599,19300.0,34,19305.0,51,19300.0,19305.0,19300.0,19305.0,91,3,19305,19,19310,63
2017-02-23 11:42:00,11:42:05,11:42:44,25613,25749,19305.0,39,19310.0,64,19310.0,19310.0,19310.0,19310.0,160,-2,19305,46,19310,19
2017-02-23 11:43:00,11:43:00,11:43:00,0,0,0.0,0,0.0,0,19310.0,19310.0,19310.0,19310.0,0,0,0,0,0,0
2017-02-23 11:44:00,11:44:30,11:44:31,25791,25794,19305.0,66,19310.0,16,19310.0,19310.0,19305.0,19305.0,2,0,19305,71,19310,14
2017-02-23 11:45:00,11:45:30,11:45:30,25815,25837,19305.0,70,19310.0,25,19310.0,19310.0,19310.0,19310.0,40,30,19305,71,19310,7
2017-02-23 11:46:00,11:46:03,11:46:54,25852,25900,19305.0,81,19310.0,20,19310.0,19310.0,19305.0,19310.0,25,3,19305,57,19310,7
2017-02-23 11:47:00,11:47:13,11:47:34,25921,25951,19305.0,69,19310.0,32,19310.0,19310.0,19310.0,19310.0,32,32,19305,76,19310,1
2017-02-23 11:48:00,11:48:26,11:48:46,25993,26071,19305.0,60,19310.0,45,19310.0,19310.0,19310.0,19310.0,72,72,19305,72,19310,28
2017-02-23 11:49:00,11:49:29,11:49:37,26101,26126,19305.0,69,19310.0,37,19310.0,19310.0,19310.0,19310.0,31,31,19305,77,19310,4
2017-02-23 11:50:00,11:50:00,11:50:00,0,0,0.0,0,0.0,0,19310.0,19310.0,19310.0,19310.0,0,0,0,0,0,0
2017-02-23 11:51:00,11:51:04,11:51:34,26170,26209,19305.0,42,19310.0,60,19310.0,19310.0,19305.0,19305.0,45,-33,19300,62,19305,23
2017-02-23 11:52:00,11:52:40,11:52:47,26247,26283,19300.0,48,19305.0,38,19300.0,19300.0,19300.0,19300.0,55,-55,19300,18,19305,36
2017-02-23 11:53:00,11:53:16,11:53:44,26321,26359,19300.0,57,19305.0,41,19305.0,19305.0,19305.0,19305.0,49,29,19300,47,19305,22
2017-02-23 11:54:00,11:54:03,11:54:50,26376,26484,19300.0,48,19305.0,39,19305.0,19315.0,19305.0,19310.0,92,78,19305,72,19310,9
2017-02-23 11:55:00,11:55:31,11:55:31,26509,26509,19305.0,70,19310.0,38,19305.0,19305.0,19305.0,19305.0,1,-1,19305,69,19310,39
2017-02-23 11:56:00,11:56:34,11:56:34,26527,26539,19305.0,75,19310.0,19,19310.0,19310.0,19310.0,19310.0,18,18,19305,77,19315,69
2017-02-23 11:57:00,11:57:10,11:57:36,26566,26687,19310.0,34,19315.0,69,19315.0,19320.0,19315.0,19320.0,164,102,19315,46,19325,56
2017-02-23 11:58:00,11:58:00,11:58:00,0,0,0.0,0,0.0,0,19320.0,19320.0,19320.0,19320.0,0,0,0,0,0,0
2017-02-23 11:59:00,11:59:23,11:59:23,26749,26749,19320.0,16,19325.0,57,19320.0,19320.0,19320.0,19320.0,1,-1,19320,15,19325,56
2017-02-23 12:00:00,12:00:42,12:00:55,26781,26931,19320.0,19,19325.0,57,19320.0,19325.0,19315.0,19315.0,185,-173,19315,11,19315,4
2017-02-23 12:01:00,12:01:01,12:01:22,26938,26979,19310.0,62,19315.0,6,19315.0,19315.0,19315.0,19315.0,20,-2,19315,17,19320,68
2017-02-23 12:02:00,12:02:08,12:02:08,26999,27004,19315.0,34,19320.0,63,19315.0,19315.0,19315.0,19315.0,10,-10,19315,24,19320,64
2017-02-23 12:03:00,12:03:27,12:03:27,27037,27037,19315.0,21,19320.0,65,19315.0,19315.0,19315.0,19315.0,1,-1,19315,25,19320,64
2017-02-23 12:04:00,12:04:00,12:04:55,27058,27182,19315.0,39,19320.0,64,19320.0,19320.0,19320.0,19320.0,136,-86,19320,38,19325,46
2017-02-23 12:05:00,12:05:00,12:05:00,0,0,0.0,0,0.0,0,19320.0,19320.0,19320.0,19320.0,0,0,0,0,0,0
2017-02-23 12:06:00,12:06:06,12:06:45,27203,27271,19320.0,34,19325.0,50,19320.0,19320.0,19320.0,19320.0,58,-16,19320,7,19325,57
2017-02-23 12:07:00,12:07:00,12:07:00,0,0,0.0,0,0.0,0,19320.0,19320.0,19320.0,19320.0,0,0,0,0,0,0
2017-02-23 12:08:00,12:08:51,12:08:59,27327,27350,19320.0,47,19325.0,40,19320.0,19320.0,19320.0,19320.0,20,-12,19315,55,19320,16
2017-02-23 12:09:00,12:09:00,12:09:31,27353,27397,19315.0,55,19320.0,16,19320.0,19320.0,19320.0,19320.0,23,-3,19315,69,19320,3
2017-02-23 12:10:00,12:10:00,12:10:23,27409,27465,19320.0,25,19325.0,47,19320.0,19320.0,19320.0,19320.0,40,-22,19315,71,19325,105
2017-02-23 12:11:00,12:11:27,12:11:38,27491,27565,19315.0,23,19320.0,99,19315.0,19315.0,19310.0,19310.0,138,-120,19305,53,19310,25
2017-02-23 12:12:00,12:12:37,12:12:53,27590,27669,19305.0,76,19310.0,68,19310.0,19315.0,19310.0,19310.0,177,167,19310,60,19315,86
2017-02-23 12:13:00,12:13:06,12:13:10,27679,27705,19310.0,60,19315.0,63,19315.0,19315.0,19315.0,19315.0,43,43,19315,43,19320,55
2017-02-23 12:14:00,12:14:14,12:14:51,27735,27739,19315.0,48,19320.0,66,19315.0,19315.0,19315.0,19315.0,2,-2,19315,44,19320,65
2017-02-23 12:15:00,12:15:16,12:15:38,27745,27793,19315.0,48,19320.0,65,19315.0,19315.0,19310.0,19315.0,87,7,19315,40,19320,40
2017-02-23 12:16:00,12:16:23,12:16:28,27819,27837,19315.0,42,19320.0,80,19320.0,19320.0,19315.0,19315.0,26,-2,19315,11,19320,85
2017-02-23 12:17:00,12:17:29,12:17:29,27866,27880,19315.0,41,19320.0,71,19320.0,19320.0,19320.0,19320.0,54,54,19315,43,19320,30
2017-02-23 12:18:00,12:18:05,12:18:56,27912,27961,19315.0,22,19320.0,62,19315.0,19320.0,19315.0,19315.0,29,17,19315,21,19320,49
2017-02-23 12:19:00,12:19:25,12:19:40,27972,28015,19315.0,27,19320.0,50,19315.0,19320.0,19315.0,19320.0,34,30,19315,72,19320,3
2017-02-23 12:20:00,12:20:56,12:20:56,28047,28064,19315.0,76,19320.0,5,19315.0,19320.0,19315.0,19320.0,21,19,19315,74,19320,9
2017-02-23 12:21:00,12:21:00,12:21:42,28067,28123,19315.0,74,19320.0,9,19320.0,19320.0,19320.0,19320.0,55,-21,19320,8,19325,58
2017-02-23 12:22:00,12:22:15,12:22:43,28144,28202,19320.0,12,19325.0,56,19320.0,19320.0,19320.0,19320.0,43,-19,19315,76,19325,65
2017-02-23 12:23:00,12:23:30,12:23:30,28232,28232,19315.0,50,19320.0,38,19315.0,19315.0,19315.0,19315.0,2,-2,19315,48,19320,41
2017-02-23 12:24:00,12:24:00,12:24:00,0,0,0.0,0,0.0,0,19315.0,19315.0,19315.0,19315.0,0,0,0,0,0,0
2017-02-23 12:25:00,12:25:02,12:25:02,28278,28278,19315.0,53,19320.0,47,19315.0,19315.0,19315.0,19315.0,1,-1,19315,52,19320,46
2017-02-23 12:26:00,12:26:23,12:26:58,28298,28315,19315.0,51,19320.0,49,19315.0,19315.0,19315.0,19315.0,5,-5,19315,28,19320,56
2017-02-23 12:27:00,12:27:23,12:27:25,28329,28368,19315.0,62,19320.0,16,19320.0,19320.0,19320.0,19320.0,39,3,19320,14,19325,55
2017-02-23 12:28:00,12:28:00,12:28:00,0,0,0.0,0,0.0,0,19320.0,19320.0,19320.0,19320.0,0,0,0,0,0,0
2017-02-23 12:29:00,12:29:04,12:29:04,28405,28405,19320.0,21,19325.0,56,19320.0,19320.0,19320.0,19320.0,1,-1,19320,32,19325,51
2017-02-23 12:30:00,12:30:00,12:30:20,28426,28463,19320.0,15,19325.0,56,19320.0,19325.0,19320.0,19325.0,28,-2,19320,25,19325,57
2017-02-23 12:31:00,12:31:06,12:31:43,28493,28522,19320.0,36,19325.0,54,19325.0,19325.0,19320.0,19320.0,8,6,19320,39,19325,47
2017-02-23 12:32:00,12:32:43,12:32:44,28554,28572,19320.0,60,19325.0,17,19325.0,19325.0,19325.0,19325.0,36,36,19320,43,19325,29
2017-02-23 12:33:00,12:33:44,12:33:51,28595,28602,19320.0,74,19325.0,17,19325.0,19325.0,19325.0,19325.0,7,7,19320,73,19325,11
2017-02-23 12:34:00,12:34:12,12:34:56,28607,28680,19320.0,73,19325.0,6,19325.0,19325.0,19325.0,19325.0,76,38,19320,73,19330,57
2017-02-23 12:35:00,12:35:21,12:35:44,28687,28700,19325.0,9,19330.0,57,19325.0,19325.0,19325.0,19325.0,16,-14,19320,78,19325,17
2017-02-23 12:36:00,12:36:49,12:36:53,28722,28743,19320.0,56,19325.0,44,19325.0,19325.0,19325.0,19325.0,22,-6,19320,76,19325,6
2017-02-23 12:37:00,12:37:00,12:37:00,0,0,0.0,0,0.0,0,19325.0,19325.0,19325.0,19325.0,0,0,0,0,0,0
2017-02-23 12:38:00,12:38:29,12:38:29,28773,28773,19320.0,70,19325.0,26,19320.0,19320.0,19320.0,19320.0,1,-1,19320,69,19325,25
2017-02-23 12:39:00,12:39:00,12:39:11,28790,28801,19320.0,91,19325.0,2,19325.0,19325.0,19325.0,19325.0,11,-7,19325,32,19330,51
2017-02-23 12:40:00,12:40:01,12:40:30,28820,28861,19325.0,52,19330.0,44,19330.0,19330.0,19330.0,19330.0,18,18,19325,53,19330,55
2017-02-23 12:41:00,12:41:06,12:41:56,28889,28911,19325.0,56,19330.0,44,19325.0,19330.0,19325.0,19325.0,9,-5,19325,59,19330,38
2017-02-23 12:42:00,12:42:04,12:42:27,28918,28999,19325.0,59,19330.0,25,19330.0,19330.0,19325.0,19325.0,105,-21,19325,36,19330,52
2017-02-23 12:43:00,12:43:06,12:43:59,29014,29114,19325.0,49,19330.0,54,19330.0,19330.0,19330.0,19330.0,94,94,19325,53,19330,22
2017-02-23 12:44:00,12:44:00,12:44:51,29116,29246,19325.0,54,19330.0,22,19330.0,19335.0,19325.0,19330.0,102,8,19325,57,19330,38
2017-02-23 12:45:00,12:45:03,12:45:57,29258,29428,19325.0,81,19330.0,51,19325.0,19340.0,19325.0,19335.0,154,-30,19335,33,19340,52
2017-02-23 12:46:00,12:46:04,12:46:59,29440,29503,19335.0,34,19340.0,55,19340.0,19340.0,19335.0,19335.0,58,-8,19330,81,19340,58
2017-02-23 12:47:00,12:47:05,12:47:38,29512,29534,19335.0,8,19340.0,59,19335.0,19335.0,19335.0,19335.0,12,-6,19335,21,19340,55
2017-02-23 12:48:00,12:48:02,12:48:59,29553,29615,19335.0,52,19340.0,39,19340.0,19340.0,19340.0,19340.0,43,34,19335,92,19340,19
2017-02-23 12:49:00,12:49:38,12:49:55,29653,29710,19335.0,47,19340.0,59,19335.0,19340.0,19335.0,19340.0,78,-20,19335,32,19340,52
2017-02-23 12:50:00,12:50:00,12:50:00,0,0,0.0,0,0.0,0,19340.0,19340.0,19340.0,19340.0,0,0,0,0,0,0
2017-02-23 12:51:00,12:51:34,12:51:58,29745,29779,19335.0,56,19340.0,107,19335.0,19335.0,19335.0,19335.0,57,-49,19330,95,19335,25
2017-02-23 12:52:00,12:52:01,12:52:26,29784,29816,19330.0,96,19335.0,24,19335.0,19335.0,19330.0,19335.0,11,7,19330,93,19335,14
2017-02-23 12:53:00,12:53:14,12:53:26,29833,29869,19330.0,88,19335.0,49,19330.0,19330.0,19330.0,19330.0,62,-46,19325,63,19330,37
2017-02-23 12:54:00,12:54:37,12:54:37,29896,29896,19325.0,53,19330.0,71,19325.0,19325.0,19325.0,19325.0,1,-1,19325,58,19330,70
2017-02-23 12:55:00,12:55:00,12:55:00,0,0,0.0,0,0.0,0,19325.0,19325.0,19325.0,19325.0,0,0,0,0,0,0
2017-02-23 12:56:00,12:56:01,12:56:35,29918,29998,19325.0,77,19330.0,52,19330.0,19330.0,19325.0,19330.0,90,58,19325,72,19330,42
2017-02-23 12:57:00,12:57:08,12:57:25,30008,30039,19325.0,70,19330.0,50,19325.0,19325.0,19325.0,19325.0,50,-50,19325,23,19330,68
2017-02-23 12:58:00,12:58:41,12:58:55,30055,30085,19325.0,41,19330.0,70,19325.0,19325.0,19325.0,19325.0,37,-37,19320,54,19325,40
2017-02-23 12:59:00,12:59:06,12:59:57,30100,30287,19320.0,71,19325.0,36,19325.0,19325.0,19310.0,19310.0,240,39,19310,53,19315,37
2017-02-23 13:00:00,13:00:00,13:00:55,30293,30463,19310.0,55,19315.0,37,19310.0,19315.0,19310.0,19310.0,143,31,19310,30,19315,49
2017-02-23 13:01:00,13:01:01,13:01:43,30468,30599,19310.0,32,19315.0,47,19310.0,19310.0,19310.0,19310.0,172,-56,19305,83,19310,3
2017-02-23 13:02:00,13:02:07,13:02:54,30618,30689,19305.0,83,19310.0,22,19310.0,19310.0,19305.0,19305.0,81,-31,19305,40,19310,26
2017-02-23 13:03:00,13:03:05,13:03:27,30695,30763,19305.0,70,19310.0,24,19310.0,19310.0,19310.0,19310.0,71,55,19310,10,19315,75
2017-02-23 13:04:00,13:04:31,13:04:39,30797,30837,19310.0,37,19315.0,75,19310.0,19310.0,19310.0,19310.0,51,-51,19305,75,19310,20
2017-02-23 13:05:00,13:05:00,13:05:00,0,0,0.0,0,0.0,0,19310.0,19310.0,19310.0,19310.0,0,0,0,0,0,0
2017-02-23 13:06:00,13:06:14,13:06:59,30858,31005,19305.0,64,19310.0,45,19305.0,19305.0,19295.0,19295.0,121,-101,19295,48,19300,81
2017-02-23 13:07:00,13:07:31,13:07:52,31025,31073,19295.0,46,19300.0,119,19295.0,19295.0,19290.0,19290.0,65,-51,19290,39,19295,56
2017-02-23 13:08:00,13:08:04,13:08:58,31095,31212,19290.0,63,19295.0,37,19295.0,19295.0,19290.0,19290.0,63,-61,19290,49,19295,67
2017-02-23 13:09:00,13:09:00,13:09:51,31216,31327,19290.0,49,19295.0,61,19295.0,19300.0,19295.0,19295.0,126,90,19290,60,19295,40
2017-02-23 13:10:00,13:10:01,13:10:40,31336,31405,19290.0,71,19295.0,38,19295.0,19295.0,19295.0,19295.0,82,46,19290,66,19295,18
2017-02-23 13:11:00,13:11:06,13:11:20,31425,31451,19290.0,65,19295.0,45,19295.0,19295.0,19295.0,19295.0,39,37,19295,19,19300,82
2017-02-23 13:12:00,13:12:00,13:12:00,0,0,0.0,0,0.0,0,19295.0,19295.0,19295.0,19295.0,0,0,0,0,0,0
2017-02-23 13:13:00,13:13:00,13:13:00,0,0,0.0,0,0.0,0,19295.0,19295.0,19295.0,19295.0,0,0,0,0,0,0
2017-02-23 13:14:00,13:14:30,13:14:34,31526,31530,19295.0,53,19300.0,81,19295.0,19300.0,19295.0,19300.0,3,1,19295,73,19300,47
2017-02-23 13:15:00,13:15:37,13:15:51,31566,31571,19295.0,59,19300.0,71,19300.0,19300.0,19295.0,19295.0,3,-1,19295,57,19300,69
2017-02-23 13:16:00,13:16:04,13:16:56,31580,31638,19295.0,64,19300.0,67,19295.0,19300.0,19295.0,19295.0,49,-45,19295,37,19300,82
2017-02-23 13:17:00,13:17:09,13:17:48,31651,31675,19295.0,44,19300.0,78,19295.0,19300.0,19295.0,19295.0,5,-3,19295,34,19300,85
2017-02-23 13:18:00,13:18:01,13:18:53,31683,31733,19295.0,38,19300.0,85,19295.0,19300.0,19295.0,19295.0,11,-9,19295,25,19300,82
2017-02-23 13:19:00,13:19:01,13:19:58,31741,31855,19295.0,57,19300.0,66,19300.0,19300.0,19295.0,19295.0,129,121,19295,37,19300,72
2017-02-23 13:20:00,13:20:11,13:20:59,31868,31914,19295.0,42,19300.0,74,19295.0,19300.0,19295.0,19300.0,16,8,19295,69,19300,62
2017-02-23 13:21:00,13:21:02,13:21:55,31916,31953,19295.0,70,19300.0,62,19300.0,19300.0,19295.0,19295.0,7,-5,19295,54,19300,74
2017-02-23 13:22:00,13:22:08,13:22:47,31958,31996,19295.0,56,19300.0,75,19295.0,19300.0,19295.0,19295.0,7,-1,19295,99,19300,38
2017-02-23 13:23:00,13:23:00,13:23:59,32003,32173,19295.0,100,19300.0,45,19295.0,19305.0,19295.0,19305.0,163,85,19305,8,19305,23
2017-02-23 13:24:00,13:24:00,13:24:57,32176,32263,19300.0,77,19305.0,1,19305.0,19305.0,19300.0,19300.0,105,86,19300,76,19305,48
2017-02-23 13:25:00,13:25:10,13:25:57,32272,32388,19300.0,93,19305.0,37,19300.0,19310.0,19300.0,19310.0,148,132,19305,67,19310,26
2017-02-23 13:26:00,13:26:01,13:26:58,32397,32547,19305.0,98,19310.0,25,19310.0,19310.0,19305.0,19310.0,203,-132,19310,1,19315,106
2017-02-23 13:27:00,13:27:00,13:27:58,32550,32665,19305.0,87,19315.0,107,19310.0,19310.0,19305.0,19310.0,87,28,19310,14,19315,103
2017-02-23 13:28:00,13:28:05,13:28:54,32674,32791,19310.0,14,19315.0,94,19310.0,19310.0,19305.0,19310.0,96,2,19305,40,19310,83
2017-02-23 13:29:00,13:29:03,13:29:59,32806,32889,19305.0,32,19310.0,103,19310.0,19310.0,19305.0,19305.0,42,12,19305,37,19310,71
2017-02-23 13:30:00,13:30:00,13:30:57,32892,33080,19305.0,38,19310.0,82,19310.0,19320.0,19305.0,19305.0,214,50,19305,49,19310,61
2017-02-23 13:31:00,13:31:01,13:31:57,33085,33226,19305.0,48,19310.0,70,19310.0,19320.0,19305.0,19315.0,106,95,19315,39,19320,83
2017-02-23 13:32:00,13:32:00,13:32:58,33230,33338,19315.0,42,19320.0,83,19320.0,19320.0,19310.0,19310.0,100,34,19310,98,19315,29
2017-02-23 13:33:00,13:33:01,13:33:58,33343,33458,19310.0,98,19315.0,31,19310.0,19320.0,19310.0,19315.0,64,36,19310,88,19315,41
2017-02-23 13:34:00,13:34:09,13:34:57,33469,33539,19310.0,88,19315.0,51,19310.0,19315.0,19310.0,19310.0,34,24,19310,88,19315,27
2017-02-23 13:35:00,13:35:09,13:35:54,33552,33647,19310.0,96,19315.0,17,19310.0,19320.0,19310.0,19315.0,59,50,19315,26,19320,84
2017-02-23 13:36:00,13:36:09,13:36:59,33661,33803,19315.0,43,19320.0,83,19315.0,19325.0,19315.0,19320.0,179,57,19315,47,19320,78
2017-02-23 13:37:00,13:37:09,13:37:58,33810,33858,19315.0,46,19320.0,79,19315.0,19320.0,19315.0,19320.0,32,22,19315,60,19320,57
2017-02-23 13:38:00,13:38:04,13:38:55,33861,33987,19315.0,71,19320.0,58,19315.0,19320.0,19315.0,19315.0,123,-21,19310,112,19315,7
2017-02-23 13:39:00,13:39:02,13:39:57,33999,34111,19310.0,117,19315.0,29,19315.0,19320.0,19315.0,19315.0,131,93,19315,42,19320,78
2017-02-23 13:40:00,13:40:05,13:40:57,34128,34180,19315.0,65,19320.0,74,19320.0,19320.0,19315.0,19315.0,34,22,19315,56,19320,63
2017-02-23 13:41:00,13:41:00,13:41:57,34185,34235,19315.0,56,19320.0,63,19320.0,19320.0,19315.0,19315.0,45,35,19315,74,19320,58
2017-02-23 13:42:00,13:42:05,13:42:57,34242,34307,19315.0,75,19320.0,59,19315.0,19320.0,19315.0,19315.0,33,17,19315,42,19320,111
2017-02-23 13:43:00,13:43:02,13:43:57,34314,34411,19315.0,50,19320.0,110,19320.0,19320.0,19315.0,19315.0,68,-6,19315,24,19320,102
2017-02-23 13:44:00,13:44:02,13:44:59,34420,34552,19315.0,11,19320.0,103,19315.0,19320.0,19315.0,19315.0,97,-7,19310,98,19315,17
2017-02-23 13:45:00,13:45:00,13:45:58,34557,34642,19310.0,99,19315.0,18,19315.0,19320.0,19315.0,19315.0,52,50,19315,56,19320,96
2017-02-23 13:46:00,13:46:14,13:46:59,34650,34812,19315.0,55,19320.0,100,19320.0,19335.0,19320.0,19330.0,216,160,19330,12,19335,141
2017-02-23 13:47:00,13:47:09,13:47:48,34829,34942,19330.0,43,19335.0,138,19335.0,19335.0,19330.0,19335.0,99,-49,19330,54,19335,82
2017-02-23 13:48:00,13:48:06,13:48:47,34959,35107,19330.0,101,19335.0,54,19335.0,19340.0,19335.0,19335.0,153,64,19330,104,19335,42
2017-02-23 13:49:00,13:49:00,13:49:57,35123,35413,19330.0,109,19335.0,66,19335.0,19345.0,19335.0,19340.0,379,243,19335,58,19340,83
2017-02-23 13:50:00,13:50:00,13:50:54,35419,35640,19335.0,60,19340.0,83,19340.0,19355.0,19340.0,19355.0,314,312,19350,55,19355,91
2017-02-23 13:51:00,13:51:05,13:51:59,35664,35788,19350.0,78,19355.0,91,19355.0,19355.0,19350.0,19355.0,88,50,19350,83,19355,86
2017-02-23 13:52:00,13:52:08,13:52:52,35799,35886,19350.0,95,19355.0,84,19355.0,19355.0,19350.0,19350.0,99,-9,19350,65,19355,86
2017-02-23 13:53:00,13:53:03,13:53:51,35897,35977,19350.0,64,19355.0,91,19355.0,19355.0,19355.0,19355.0,48,48,19350,87,19355,71
2017-02-23 13:54:00,13:54:03,13:54:53,35983,36117,19350.0,89,19355.0,72,19355.0,19355.0,19350.0,19355.0,141,-27,19350,118,19355,97
2017-02-23 13:55:00,13:55:03,13:55:58,36132,36301,19350.0,136,19355.0,93,19355.0,19360.0,19350.0,19355.0,225,129,19350,125,19355,105
2017-02-23 13:56:00,13:56:10,13:56:59,36312,36422,19350.0,129,19355.0,105,19355.0,19360.0,19350.0,19355.0,176,50,19350,140,19355,36
2017-02-23 13:57:00,13:57:06,13:57:55,36432,36543,19350.0,138,19355.0,42,19355.0,19355.0,19350.0,19355.0,108,96,19350,136,19355,6
2017-02-23 13:58:00,13:58:00,13:58:56,36553,36834,19350.0,135,19355.0,90,19355.0,19365.0,19355.0,19360.0,336,183,19355,71,19360,126
2017-02-23 13:59:00,13:59:02,13:59:59,36847,37221,19355.0,95,19360.0,114,19360.0,19365.0,19350.0,19360.0,497,-5,19355,133,19360,73
2017-02-23 14:00:00,14:00:00,14:00:59,37222,37616,19355.0,131,19360.0,89,19360.0,19360.0,19350.0,19350.0,613,-133,19350,88,19355,122
2017-02-23 14:01:00,14:01:00,14:01:50,37617,37854,19350.0,8,19355.0,168,19355.0,19355.0,19345.0,19350.0,460,-82,19350,64,19355,103
2017-02-23 14:02:00,14:02:08,14:02:22,37873,37920,19350.0,91,19355.0,97,19350.0,19355.0,19350.0,19355.0,106,46,19350,111,19355,57
2017-02-23 14:03:00,14:03:00,14:03:58,37950,38033,19350.0,97,19355.0,96,19355.0,19355.0,19350.0,19350.0,52,10,19350,97,19355,91
2017-02-23 14:04:00,14:04:00,14:04:58,38037,38276,19350.0,97,19355.0,84,19355.0,19365.0,19350.0,19360.0,325,153,19360,89,19365,153
2017-02-23 14:05:00,14:05:02,14:05:53,38283,38452,19360.0,88,19365.0,153,19360.0,19360.0,19355.0,19360.0,219,-39,19355,140,19360,135
2017-02-23 14:06:00,14:06:00,14:06:59,38458,38598,19355.0,138,19360.0,136,19360.0,19360.0,19355.0,19355.0,222,-212,19355,90,19360,177
2017-02-23 14:07:00,14:07:07,14:07:57,38602,38728,19355.0,111,19360.0,177,19355.0,19360.0,19350.0,19350.0,124,-62,19350,134,19355,26
2017-02-23 14:08:00,14:08:04,14:08:58,38733,38892,19350.0,129,19355.0,25,19355.0,19355.0,19350.0,19350.0,199,-79,19350,47,19355,96
2017-02-23 14:09:00,14:09:20,14:09:59,38915,38957,19350.0,69,19355.0,95,19355.0,19355.0,19350.0,19350.0,38,-34,19350,82,19355,58
