,ST,ET,sidx,eidx,bB,bBS,bA,bAS,O,H,L,C,V,OF,eB,eBS,eA,eAS
2016-12-15 08:00:00,08:00:00,08:00:53,2967,3450,19290.0,35,19295.0,19,19290.0,19305.0,19290.0,19300.0,618,-166,19300,4,19305,51
2016-12-15 08:01:00,08:01:03,08:01:55,3479,3879,19300.0,31,19305.0,56,19305.0,19315.0,19300.0,19315.0,471,111,19310,82,19315,2
2016-12-15 08:02:00,08:02:00,08:02:59,3892,4287,19315.0,9,19320.0,50,19320.0,19335.0,19315.0,19335.0,436,268,19330,39,19335,17
2016-12-15 08:03:00,08:03:00,08:03:47,4292,4574,19330.0,48,19335.0,18,19335.0,19335.0,19325.0,19330.0,364,6,19325,40,19335,44
2016-12-15 08:04:00,08:04:04,08:04:59,4603,4950,19330.0,31,19335.0,45,19335.0,19345.0,19330.0,19340.0,524,108,19335,68,19340,3
2016-12-15 08:05:00,08:05:00,08:05:56,4951,5307,19340.0,14,19345.0,41,19340.0,19350.0,19335.0,19350.0,419,-33,19345,34,19350,28
2016-12-15 08:06:00,08:06:00,08:06:59,5311,5531,19345.0,34,19350.0,27,19345.0,19360.0,19345.0,19360.0,182,-8,19355,58,19360,41
2016-12-15 08:07:00,08:07:00,08:07:57,5535,6101,19355.0,59,19360.0,41,19360.0,19375.0,19355.0,19375.0,720,162,19370,37,19375,21
2016-12-15 08:08:00,08:08:01,08:08:58,6113,6544,19370.0,26,19375.0,36,19375.0,19380.0,19370.0,19375.0,501,68,19375,22,19380,49
2016-12-15 08:09:00,08:09:03,08:09:57,6560,7003,19375.0,29,19380.0,48,19375.0,19400.0,19375.0,19395.0,560,158,19395,20,19400,96
2016-12-15 08:10:00,08:10:01,08:10:59,7013,7279,19395.0,27,19400.0,102,19395.0,19395.0,19380.0,19380.0,191,-159,19375,49,19380,47
2016-12-15 08:11:00,08:11:00,08:11:57,7280,7588,19380.0,31,19385.0,63,19380.0,19380.0,19370.0,19380.0,307,76,19380,9,19385,58
2016-12-15 08:12:00,08:12:01,08:12:53,7598,7760,19380.0,41,19385.0,51,19385.0,19385.0,19385.0,19385.0,121,90,19385,27,19390,62
2016-12-15 08:13:00,08:13:01,08:13:55,7779,8111,19385.0,37,19390.0,71,19385.0,19385.0,19380.0,19385.0,316,-72,19385,54,19390,79
2016-12-15 08:14:00,08:14:01,08:14:55,8127,8406,19385.0,30,19390.0,85,19385.0,19385.0,19375.0,19380.0,318,-196,19375,45,19380,13
2016-12-15 08:15:00,08:15:00,08:15:59,8417,8875,19375.0,41,19380.0,43,19375.0,19405.0,19375.0,19395.0,560,330,19390,42,19395,31
2016-12-15 08:16:00,08:16:06,08:16:56,8896,9191,19390.0,34,19395.0,46,19395.0,19405.0,19385.0,19385.0,318,-26,19385,32,19390,48
2016-12-15 08:17:00,08:17:00,08:17:55,9200,9533,19385.0,36,19390.0,47,19390.0,19395.0,19385.0,19385.0,313,23,19385,7,19390,59
2016-12-15 08:18:00,08:18:00,08:18:33,9544,9767,19385.0,13,19390.0,54,19390.0,19395.0,19385.0,19390.0,260,134,19385,47,19390,10
2016-12-15 08:19:00,08:19:00,08:19:59,9820,10181,19385.0,43,19390.0,51,19390.0,19390.0,19385.0,19390.0,325,54,19390,4,19395,52
2016-12-15 08:20:00,08:20:00,08:20:57,10186,10523,19390.0,5,19395.0,53,19390.0,19390.0,19375.0,19385.0,309,-127,19380,39,19385,31
2016-12-15 08:21:00,08:21:04,08:21:55,10541,10810,19380.0,34,19385.0,41,19385.0,19385.0,19375.0,19375.0,219,-69,19370,47,19380,50
2016-12-15 08:22:00,08:22:00,08:22:38,10817,11048,19370.0,48,19375.0,6,19375.0,19375.0,19370.0,19370.0,197,113,19370,19,19375,43
2016-12-15 08:23:00,08:23:00,08:23:50,11080,11315,19370.0,40,19375.0,35,19375.0,19375.0,19360.0,19360.0,189,-69,19360,61,19365,31
2016-12-15 08:24:00,08:24:02,08:24:59,11329,11564,19360.0,63,19365.0,38,19365.0,19370.0,19365.0,19370.0,257,134,19370,5,19375,49
2016-12-15 08:25:00,08:25:07,08:25:59,11584,11794,19370.0,32,19375.0,50,19370.0,19375.0,19370.0,19370.0,139,-29,19365,61,19370,5
2016-12-15 08:26:00,08:26:01,08:26:49,11799,11975,19365.0,61,19370.0,15,19370.0,19370.0,19360.0,19365.0,143,-25,19365,5,19370,43
2016-12-15 08:27:00,08:27:00,08:27:53,11998,12470,19365.0,30,19370.0,45,19370.0,19370.0,19340.0,19345.0,583,-299,19345,8,19350,44
2016-12-15 08:28:00,08:28:02,08:28:54,12486,12946,19345.0,41,19350.0,42,19345.0,19350.0,19325.0,19335.0,598,-160,19335,22,19340,32
2016-12-15 08:29:00,08:29:08,08:29:59,12965,13181,19335.0,46,19340.0,13,19340.0,19345.0,19340.0,19345.0,249,-55,19340,32,19350,31
2016-12-15 08:30:00,08:30:02,08:30:51,13193,13365,19345.0,13,19350.0,38,19345.0,19355.0,19345.0,19355.0,154,-78,19350,37,19355,8
2016-12-15 08:31:00,08:31:00,08:31:55,13383,13597,19350.0,35,19355.0,23,19355.0,19355.0,19345.0,19350.0,155,-29,19345,31,19350,17
2016-12-15 08:32:00,08:32:00,08:32:51,13600,13723,19345.0,31,19350.0,17,19350.0,19355.0,19350.0,19355.0,76,-2,19355,18,19360,38
2016-12-15 08:33:00,08:33:03,08:33:47,13744,14040,19355.0,35,19360.0,32,19355.0,19365.0,19355.0,19355.0,412,-124,19350,30,19355,5
2016-12-15 08:34:00,08:34:00,08:34:58,14059,14231,19350.0,22,19355.0,25,19355.0,19355.0,19350.0,19355.0,103,5,19350,33,19355,16
2016-12-15 08:35:00,08:35:02,08:35:48,14238,14520,19350.0,28,19355.0,22,19355.0,19365.0,19355.0,19360.0,403,215,19360,145,19365,18
2016-12-15 08:36:00,08:36:00,08:36:40,14536,14597,19360.0,142,19365.0,33,19360.0,19360.0,19360.0,19360.0,17,-15,19355,38,19360,40
2016-12-15 08:37:00,08:37:00,08:37:50,14607,14752,19355.0,35,19360.0,45,19360.0,19360.0,19350.0,19350.0,130,-50,19350,14,19355,44
2016-12-15 08:38:00,08:38:22,08:38:45,14797,14908,19350.0,35,19355.0,50,19355.0,19355.0,19350.0,19350.0,148,52,19345,43,19350,19
2016-12-15 08:39:00,08:39:00,08:39:41,14931,15097,19345.0,43,19350.0,17,19345.0,19355.0,19345.0,19350.0,162,-58,19350,18,19355,25
2016-12-15 08:40:00,08:40:00,08:40:44,15121,15234,19350.0,40,19355.0,18,19355.0,19355.0,19350.0,19355.0,98,-40,19355,5,19360,41
2016-12-15 08:41:00,08:41:06,08:41:54,15264,15400,19355.0,16,19360.0,41,19355.0,19355.0,19345.0,19350.0,89,-39,19345,22,19350,25
2016-12-15 08:42:00,08:42:04,08:42:57,15418,15652,19345.0,23,19350.0,30,19345.0,19350.0,19330.0,19330.0,199,-147,19330,13,19335,27
2016-12-15 08:43:00,08:43:03,08:43:52,15671,15821,19330.0,17,19335.0,53,19330.0,19335.0,19325.0,19330.0,109,25,19325,34,19330,11
2016-12-15 08:44:00,08:44:01,08:44:36,15833,15984,19325.0,33,19330.0,17,19330.0,19335.0,19330.0,19330.0,131,3,19325,31,19330,10
2016-12-15 08:45:00,08:45:09,08:45:53,16025,16130,19325.0,25,19330.0,39,19330.0,19330.0,19325.0,19325.0,121,33,19325,8,19330,49
2016-12-15 08:46:00,08:46:20,08:46:49,16169,16211,19325.0,30,19330.0,39,19325.0,19325.0,19325.0,19325.0,18,-18,19325,30,19330,48
2016-12-15 08:47:00,08:47:03,08:47:54,16227,16400,19325.0,29,19330.0,59,19325.0,19330.0,19315.0,19325.0,173,-83,19325,49,19330,37
2016-12-15 08:48:00,08:48:01,08:48:59,16406,16709,19325.0,53,19330.0,41,19330.0,19330.0,19305.0,19305.0,330,-112,19305,24,19310,47
2016-12-15 08:49:00,08:49:00,08:49:58,16710,17432,19305.0,20,19310.0,37,19305.0,19305.0,19250.0,19250.0,1061,-692,19250,21,19255,34
2016-12-15 08:50:00,08:50:01,08:50:56,17437,17869,19250.0,21,19255.0,43,19250.0,19265.0,19245.0,19265.0,469,252,19260,49,19265,3
2016-12-15 08:51:00,08:51:01,08:51:59,17885,18177,19260.0,46,19265.0,20,19260.0,19270.0,19260.0,19265.0,276,106,19265,18,19270,133
2016-12-15 08:52:00,08:52:00,08:52:46,18181,18360,19265.0,16,19270.0,133,19265.0,19275.0,19265.0,19275.0,251,201,19270,41,19275,8
2016-12-15 08:53:00,08:53:01,08:53:59,18376,18682,19270.0,49,19275.0,32,19275.0,19280.0,19270.0,19275.0,281,37,19275,4,19280,102
2016-12-15 08:54:00,08:54:00,08:54:57,18685,19062,19275.0,4,19280.0,102,19275.0,19275.0,19225.0,19225.0,398,-302,19220,36,19225,2
2016-12-15 08:55:00,08:55:00,08:55:59,19074,19679,19220.0,43,19225.0,40,19225.0,19250.0,19225.0,19250.0,678,304,19250,20,19255,31
2016-12-15 08:56:00,08:56:01,08:56:59,19685,19963,19250.0,29,19255.0,25,19255.0,19260.0,19255.0,19260.0,290,96,19255,27,19260,16
2016-12-15 08:57:00,08:57:09,08:57:56,19982,20200,19255.0,17,19260.0,56,19255.0,19260.0,19245.0,19255.0,227,63,19255,56,19260,37
2016-12-15 08:58:00,08:58:00,08:58:51,20206,20369,19255.0,62,19260.0,39,19255.0,19265.0,19255.0,19265.0,175,59,19260,32,19265,10
2016-12-15 08:59:00,08:59:00,08:59:58,20387,20648,19260.0,35,19265.0,16,19265.0,19270.0,19265.0,19270.0,272,45,19270,17,19275,34
2016-12-15 09:00:00,09:00:00,09:00:59,20657,20929,19270.0,19,19275.0,37,19270.0,19275.0,19270.0,19275.0,214,18,19275,17,19280,35
2016-12-15 09:01:00,09:01:04,09:01:59,20945,21197,19275.0,11,19280.0,52,19275.0,19285.0,19275.0,19280.0,233,74,19280,1,19285,50
2016-12-15 09:02:00,09:02:02,09:02:54,21201,21352,19280.0,1,19285.0,53,19280.0,19285.0,19280.0,19285.0,103,15,19280,34,19290,36
2016-12-15 09:03:00,09:03:03,09:03:52,21370,21547,19280.0,30,19285.0,16,19285.0,19285.0,19280.0,19280.0,128,30,19275,27,19280,7
2016-12-15 09:04:00,09:04:05,09:04:46,21561,21682,19275.0,67,19280.0,23,19280.0,19280.0,19275.0,19275.0,118,48,19275,16,19280,30
2016-12-15 09:05:00,09:05:02,09:05:59,21696,21873,19275.0,28,19280.0,28,19280.0,19280.0,19275.0,19275.0,143,10,19270,65,19280,43
2016-12-15 09:06:00,09:06:04,09:06:57,21880,22001,19275.0,7,19280.0,43,19275.0,19275.0,19270.0,19270.0,83,47,19270,57,19275,34
2016-12-15 09:07:00,09:07:01,09:07:50,22004,22104,19270.0,57,19275.0,34,19275.0,19275.0,19270.0,19275.0,95,7,19275,64,19280,25
2016-12-15 09:08:00,09:08:10,09:08:52,22125,22303,19275.0,50,19280.0,51,19280.0,19280.0,19275.0,19275.0,155,63,19275,64,19280,41
2016-12-15 09:09:00,09:09:14,09:09:44,22328,22416,19275.0,49,19280.0,50,19275.0,19280.0,19275.0,19275.0,85,-25,19270,47,19275,19
2016-12-15 09:10:00,09:10:00,09:10:48,22429,22518,19270.0,49,19275.0,27,19275.0,19275.0,19270.0,19270.0,59,-13,19270,19,19275,55
2016-12-15 09:11:00,09:11:01,09:11:47,22532,22673,19270.0,30,19275.0,56,19270.0,19275.0,19270.0,19275.0,126,33,19270,44,19275,53
2016-12-15 09:12:00,09:12:06,09:12:55,22702,22926,19270.0,35,19275.0,63,19275.0,19280.0,19275.0,19280.0,314,16,19280,2,19285,53
2016-12-15 09:13:00,09:13:04,09:13:58,22948,23091,19280.0,18,19285.0,90,19285.0,19285.0,19280.0,19280.0,138,74,19280,7,19285,54
2016-12-15 09:14:00,09:14:06,09:14:56,23106,23271,19280.0,14,19285.0,51,19280.0,19280.0,19270.0,19275.0,108,14,19275,7,19280,59
2016-12-15 09:15:00,09:15:05,09:15:46,23293,23470,19275.0,14,19280.0,51,19275.0,19275.0,19265.0,19265.0,141,-14,19260,40,19265,7
2016-12-15 09:16:00,09:16:00,09:16:53,23504,23772,19260.0,38,19265.0,19,19265.0,19265.0,19245.0,19260.0,299,3,19255,41,19260,2
2016-12-15 09:17:00,09:17:00,09:17:48,23783,23973,19255.0,18,19260.0,38,19260.0,19260.0,19250.0,19250.0,136,-54,19250,24,19255,45
2016-12-15 09:18:00,09:18:00,09:18:58,23987,24501,19250.0,33,19255.0,51,19255.0,19255.0,19225.0,19240.0,607,-245,19240,17,19245,36
2016-12-15 09:19:00,09:19:00,09:19:56,24506,24703,19240.0,25,19245.0,28,19245.0,19255.0,19245.0,19250.0,177,-43,19250,38,19255,41
2016-12-15 09:20:00,09:20:08,09:20:58,24718,24909,19250.0,39,19255.0,49,19250.0,19250.0,19245.0,19245.0,130,-50,19245,29,19250,60
2016-12-15 09:21:00,09:21:01,09:21:59,24919,25070,19245.0,30,19250.0,63,19245.0,19245.0,19240.0,19245.0,203,-159,19240,51,19245,10
2016-12-15 09:22:00,09:22:01,09:22:56,25075,25322,19240.0,47,19245.0,20,19245.0,19245.0,19220.0,19225.0,263,-91,19225,41,19230,28
2016-12-15 09:23:00,09:23:02,09:23:53,25328,25524,19225.0,41,19230.0,40,19230.0,19240.0,19225.0,19240.0,173,89,19240,9,19245,45
2016-12-15 09:24:00,09:24:02,09:24:59,25535,25734,19240.0,27,19245.0,37,19245.0,19250.0,19240.0,19250.0,126,57,19245,55,19250,5
2016-12-15 09:25:00,09:25:00,09:25:54,25737,25886,19245.0,55,19250.0,5,19250.0,19255.0,19250.0,19255.0,94,63,19250,51,19255,5
2016-12-15 09:26:00,09:26:02,09:26:56,25895,26020,19250.0,46,19255.0,22,19255.0,19255.0,19245.0,19245.0,67,-11,19240,28,19245,41
2016-12-15 09:27:00,09:27:02,09:27:56,26038,26223,19240.0,9,19245.0,55,19245.0,19255.0,19235.0,19250.0,142,-70,19245,25,19250,32
2016-12-15 09:28:00,09:28:08,09:28:55,26245,26346,19245.0,45,19250.0,54,19250.0,19250.0,19245.0,19250.0,64,4,19245,47,19250,7
2016-12-15 09:29:00,09:29:02,09:29:50,26353,26474,19245.0,26,19250.0,44,19245.0,19245.0,19240.0,19240.0,85,-31,19240,19,19245,51
2016-12-15 09:30:00,09:30:00,09:30:58,26492,26659,19240.0,12,19245.0,54,19245.0,19245.0,19240.0,19245.0,96,14,19240,58,19245,3
2016-12-15 09:31:00,09:31:01,09:31:59,26666,26808,19240.0,54,19245.0,23,19245.0,19245.0,19240.0,19245.0,116,-30,19245,6,19250,54
2016-12-15 09:32:00,09:32:00,09:32:47,26810,27005,19245.0,6,19250.0,55,19250.0,19260.0,19250.0,19260.0,259,121,19255,45,19260,46
2016-12-15 09:33:00,09:33:00,09:33:54,27024,27275,19255.0,45,19260.0,51,19260.0,19270.0,19255.0,19270.0,207,41,19265,70,19270,20
2016-12-15 09:34:00,09:34:03,09:34:57,27282,27461,19265.0,70,19270.0,29,19270.0,19270.0,19265.0,19270.0,289,24,19265,60,19270,23
2016-12-15 09:35:00,09:35:00,09:35:56,27464,27600,19265.0,60,19270.0,23,19270.0,19270.0,19265.0,19265.0,61,-43,19260,51,19270,70
2016-12-15 09:36:00,09:36:03,09:36:53,27618,27807,19265.0,19,19270.0,69,19265.0,19265.0,19260.0,19260.0,159,-17,19260,6,19265,58
2016-12-15 09:37:00,09:37:00,09:37:37,27823,27918,19260.0,47,19265.0,38,19265.0,19270.0,19260.0,19265.0,50,40,19265,45,19270,32
2016-12-15 09:38:00,09:38:01,09:38:57,27931,27984,19265.0,49,19270.0,31,19270.0,19270.0,19265.0,19265.0,3,1,19265,57,19270,53
2016-12-15 09:39:00,09:39:01,09:39:58,27992,28126,19265.0,56,19270.0,49,19270.0,19275.0,19265.0,19265.0,86,-18,19265,51,19270,51
2016-12-15 09:40:00,09:40:01,09:40:39,28131,28257,19265.0,51,19270.0,51,19270.0,19270.0,19255.0,19255.0,99,-69,19255,10,19260,59
2016-12-15 09:41:00,09:41:06,09:41:58,28284,28510,19255.0,19,19260.0,70,19255.0,19255.0,19245.0,19245.0,230,-138,19245,13,19250,55
2016-12-15 09:42:00,09:42:14,09:42:58,28528,28628,19245.0,23,19250.0,58,19245.0,19250.0,19245.0,19250.0,55,21,19245,59,19250,13
2016-12-15 09:43:00,09:43:01,09:43:57,28634,28788,19245.0,58,19250.0,25,19250.0,19250.0,19245.0,19250.0,123,-53,19250,9,19255,45
2016-12-15 09:44:00,09:44:03,09:44:53,28795,28917,19250.0,5,19255.0,49,19250.0,19255.0,19250.0,19250.0,63,5,19250,12,19255,54
2016-12-15 09:45:00,09:45:12,09:45:49,28949,29077,19250.0,10,19255.0,58,19250.0,19250.0,19250.0,19250.0,95,5,19250,1,19255,57
2016-12-15 09:46:00,09:46:02,09:46:47,29096,29195,19250.0,12,19255.0,59,19255.0,19255.0,19255.0,19255.0,61,11,19255,2,19260,56
2016-12-15 09:47:00,09:47:00,09:47:52,29218,29413,19255.0,30,19260.0,45,19260.0,19270.0,19260.0,19270.0,198,56,19265,64,19270,8
2016-12-15 09:48:00,09:48:01,09:48:56,29430,29658,19265.0,62,19270.0,22,19270.0,19270.0,19260.0,19265.0,276,-89,19260,88,19265,22
2016-12-15 09:49:00,09:49:00,09:49:57,29669,29773,19260.0,81,19265.0,26,19265.0,19270.0,19260.0,19270.0,101,-23,19265,97,19270,49
2016-12-15 09:50:00,09:50:01,09:50:45,29778,29950,19265.0,93,19270.0,49,19270.0,19270.0,19260.0,19260.0,173,-37,19260,34,19265,38
2016-12-15 09:51:00,09:51:04,09:51:34,29977,30040,19260.0,23,19265.0,53,19265.0,19275.0,19265.0,19270.0,42,34,19270,15,19275,63
2016-12-15 09:52:00,09:52:00,09:52:56,30079,30211,19270.0,57,19275.0,45,19275.0,19275.0,19270.0,19270.0,94,-40,19270,8,19275,49
2016-12-15 09:53:00,09:53:03,09:53:56,30224,30404,19270.0,19,19275.0,53,19270.0,19285.0,19270.0,19275.0,237,115,19275,39,19280,30
2016-12-15 09:54:00,09:54:00,09:54:51,30417,30560,19275.0,35,19280.0,49,19280.0,19280.0,19270.0,19270.0,96,-53,19265,49,19270,5
2016-12-15 09:55:00,09:55:08,09:55:55,30581,30716,19265.0,50,19270.0,11,19270.0,19270.0,19260.0,19260.0,103,-29,19260,4,19265,55
2016-12-15 09:56:00,09:56:00,09:56:48,30723,30863,19260.0,10,19265.0,55,19260.0,19260.0,19245.0,19250.0,104,-4,19245,18,19250,35
2016-12-15 09:57:00,09:57:00,09:57:59,30880,31104,19245.0,21,19250.0,53,19245.0,19255.0,19245.0,19245.0,321,-195,19240,58,19245,17
2016-12-15 09:58:00,09:58:00,09:58:58,31108,31179,19240.0,58,19245.0,8,19245.0,19250.0,19245.0,19250.0,59,17,19250,36,19255,32
2016-12-15 09:59:00,09:59:00,09:59:59,31186,31380,19250.0,36,19255.0,32,19250.0,19250.0,19245.0,19245.0,138,-112,19245,13,19250,49
2016-12-15 10:00:00,10:00:00,10:00:21,31384,31458,19245.0,12,19250.0,49,19245.0,19245.0,19245.0,19245.0,64,-38,19245,2,19250,49
2016-12-15 10:01:00,10:01:12,10:01:59,31514,31698,19245.0,40,19250.0,71,19245.0,19255.0,19245.0,19255.0,218,50,19255,5,19260,63
2016-12-15 10:02:00,10:02:01,10:02:44,31701,31872,19255.0,5,19260.0,63,19255.0,19255.0,19245.0,19245.0,141,-49,19245,14,19250,55
2016-12-15 10:03:00,10:03:00,10:03:57,31893,32079,19245.0,47,19250.0,38,19250.0,19250.0,19235.0,19235.0,154,27,19235,55,19240,39
2016-12-15 10:04:00,10:04:08,10:04:41,32095,32142,19235.0,57,19240.0,48,19235.0,19235.0,19235.0,19235.0,23,-23,19230,52,19235,34
2016-12-15 10:05:00,10:05:03,10:05:57,32162,32295,19230.0,50,19235.0,46,19230.0,19230.0,19225.0,19225.0,80,-80,19220,61,19225,41
2016-12-15 10:06:00,10:06:02,10:06:57,32306,32666,19220.0,22,19225.0,80,19220.0,19225.0,19205.0,19205.0,377,-27,19205,14,19210,68
2016-12-15 10:07:00,10:07:01,10:07:55,32674,33010,19205.0,27,19210.0,71,19205.0,19215.0,19205.0,19210.0,341,130,19210,6,19215,71
2016-12-15 10:08:00,10:08:05,10:08:57,33019,33227,19210.0,9,19215.0,71,19210.0,19215.0,19205.0,19205.0,198,-93,19205,49,19210,41
2016-12-15 10:09:00,10:09:01,10:09:47,33234,33381,19205.0,52,19210.0,37,19210.0,19210.0,19200.0,19200.0,111,-45,19200,23,19205,89
2016-12-15 10:10:00,10:10:02,10:10:48,33394,33673,19200.0,45,19205.0,81,19200.0,19200.0,19195.0,19195.0,256,66,19190,57,19195,21
2016-12-15 10:11:00,10:11:02,10:11:51,33697,33851,19190.0,68,19195.0,34,19195.0,19200.0,19195.0,19200.0,131,119,19200,34,19205,52
2016-12-15 10:12:00,10:12:00,10:12:40,33862,34135,19200.0,42,19205.0,52,19205.0,19205.0,19190.0,19195.0,358,-150,19195,20,19200,68
2016-12-15 10:13:00,10:13:03,10:13:57,34157,34366,19195.0,65,19200.0,79,19200.0,19200.0,19190.0,19190.0,232,-89,19185,69,19195,59
2016-12-15 10:14:00,10:14:03,10:14:59,34376,34528,19185.0,62,19190.0,8,19190.0,19195.0,19185.0,19190.0,90,36,19185,64,19190,2
2016-12-15 10:15:00,10:15:00,10:15:40,34529,34622,19185.0,37,19190.0,37,19190.0,19195.0,19185.0,19190.0,44,26,19190,27,19195,52
2016-12-15 10:16:00,10:16:08,10:16:46,34645,34788,19190.0,26,19195.0,58,19190.0,19195.0,19190.0,19195.0,129,-25,19190,57,19195,12
2016-12-15 10:17:00,10:17:12,10:17:59,34816,34992,19190.0,40,19195.0,59,19190.0,19190.0,19180.0,19185.0,165,-33,19180,67,19185,35
2016-12-15 10:18:00,10:18:12,10:18:58,35001,35181,19180.0,71,19185.0,29,19185.0,19190.0,19185.0,19190.0,156,58,19185,68,19190,6
2016-12-15 10:19:00,10:19:01,10:19:57,35188,35347,19185.0,67,19190.0,18,19185.0,19185.0,19170.0,19175.0,149,-57,19170,45,19175,27
2016-12-15 10:20:00,10:20:04,10:20:48,35367,35630,19170.0,40,19175.0,83,19175.0,19180.0,19165.0,19175.0,246,24,19175,40,19180,73
2016-12-15 10:21:00,10:21:00,10:21:57,35653,35927,19175.0,44,19180.0,73,19175.0,19185.0,19175.0,19185.0,296,20,19180,33,19185,51
2016-12-15 10:22:00,10:22:04,10:22:48,35940,36135,19180.0,26,19185.0,53,19180.0,19180.0,19175.0,19180.0,358,-56,19175,57,19180,10
2016-12-15 10:23:00,10:23:02,10:23:59,36152,36311,19175.0,57,19180.0,22,19175.0,19180.0,19175.0,19175.0,179,-47,19170,57,19175,35
2016-12-15 10:24:00,10:24:00,10:24:57,36313,36451,19170.0,59,19175.0,35,19175.0,19175.0,19175.0,19175.0,84,61,19170,64,19175,9
2016-12-15 10:25:00,10:25:01,10:25:58,36456,36653,19170.0,65,19175.0,7,19175.0,19180.0,19170.0,19180.0,204,-24,19175,53,19180,64
2016-12-15 10:26:00,10:26:05,10:26:58,36655,36836,19175.0,53,19180.0,65,19180.0,19185.0,19175.0,19185.0,193,-61,19180,42,19185,63
2016-12-15 10:27:00,10:27:09,10:27:56,36844,36897,19180.0,41,19185.0,74,19185.0,19185.0,19180.0,19185.0,10,8,19180,64,19185,73
2016-12-15 10:28:00,10:28:00,10:28:45,36903,37149,19180.0,62,19185.0,74,19180.0,19185.0,19175.0,19180.0,305,-131,19180,19,19185,61
2016-12-15 10:29:00,10:29:00,10:29:58,37161,37302,19180.0,46,19185.0,62,19185.0,19185.0,19175.0,19180.0,120,-28,19175,57,19180,27
2016-12-15 10:30:00,10:30:00,10:30:57,37308,37854,19175.0,22,19180.0,57,19175.0,19175.0,19135.0,19135.0,622,-303,19135,21,19140,69
2016-12-15 10:31:00,10:31:04,10:31:49,37860,38084,19135.0,26,19140.0,74,19140.0,19145.0,19135.0,19135.0,228,134,19135,65,19140,17
2016-12-15 10:32:00,10:32:03,10:32:59,38104,38338,19135.0,63,19140.0,27,19140.0,19140.0,19120.0,19130.0,208,0,19125,60,19130,5
2016-12-15 10:33:00,10:33:01,10:33:48,38343,38509,19125.0,60,19130.0,9,19130.0,19145.0,19130.0,19145.0,108,95,19140,57,19150,64
2016-12-15 10:34:00,10:34:48,10:34:54,38543,38566,19140.0,106,19145.0,17,19145.0,19145.0,19145.0,19145.0,26,26,19140,106,19145,6
2016-12-15 10:35:00,10:35:02,10:35:59,38574,38769,19140.0,107,19145.0,9,19145.0,19155.0,19140.0,19155.0,121,17,19150,45,19155,8
2016-12-15 10:36:00,10:36:00,10:36:59,38770,38903,19150.0,50,19155.0,17,19155.0,19160.0,19150.0,19160.0,82,50,19155,66,19160,27
2016-12-15 10:37:00,10:37:08,10:37:59,38906,39008,19155.0,66,19160.0,27,19160.0,19165.0,19160.0,19165.0,87,87,19165,9,19165,6
2016-12-15 10:38:00,10:38:00,10:38:52,39010,39159,19160.0,98,19165.0,6,19165.0,19170.0,19165.0,19165.0,154,16,19165,7,19170,59
2016-12-15 10:39:00,10:39:00,10:39:57,39169,39212,19165.0,30,19170.0,55,19170.0,19170.0,19165.0,19170.0,4,2,19165,42,19170,50
2016-12-15 10:40:00,10:40:01,10:40:58,39215,39351,19165.0,42,19170.0,50,19170.0,19175.0,19165.0,19170.0,109,3,19170,45,19175,48
2016-12-15 10:41:00,10:41:00,10:41:57,39358,39404,19170.0,22,19175.0,83,19170.0,19175.0,19170.0,19170.0,5,-3,19170,60,19175,55
2016-12-15 10:42:00,10:42:02,10:42:54,39407,39507,19170.0,60,19175.0,55,19170.0,19170.0,19170.0,19170.0,99,-99,19170,18,19175,68
2016-12-15 10:43:00,10:43:55,10:43:58,39535,39537,19170.0,31,19175.0,74,19170.0,19170.0,19170.0,19170.0,8,-8,19170,20,19175,71
2016-12-15 10:44:00,10:44:05,10:44:58,39542,39614,19170.0,22,19175.0,74,19170.0,19175.0,19170.0,19175.0,59,13,19170,58,19180,63
2016-12-15 10:45:00,10:45:00,10:45:04,39618,39636,19175.0,3,19180.0,59,19175.0,19175.0,19170.0,19175.0,22,-8,19175,5,19180,59
2016-12-15 10:46:00,10:46:19,10:46:54,39677,39747,19175.0,65,19180.0,63,19175.0,19185.0,19175.0,19180.0,57,29,19180,10,19185,58
2016-12-15 10:47:00,10:47:00,10:47:49,39754,39815,19180.0,17,19185.0,58,19180.0,19185.0,19180.0,19185.0,19,-9,19180,22,19185,69
2016-12-15 10:48:00,10:48:08,10:48:51,39832,39976,19180.0,56,19185.0,37,19180.0,19180.0,19170.0,19170.0,148,-100,19165,64,19170,20
2016-12-15 10:49:00,10:49:01,10:49:51,39986,40108,19165.0,64,19170.0,35,19170.0,19170.0,19155.0,19155.0,94,-40,19155,55,19160,48
2016-12-15 10:50:00,10:50:01,10:50:42,40112,40185,19155.0,52,19160.0,48,19160.0,19160.0,19155.0,19155.0,55,-42,19150,58,19155,34
2016-12-15 10:51:00,10:51:02,10:51:47,40205,40426,19150.0,53,19155.0,42,19155.0,19155.0,19150.0,19155.0,207,45,19150,60,19155,9
2016-12-15 10:52:00,10:52:01,10:52:42,40440,40544,19150.0,49,19155.0,32,19150.0,19150.0,19145.0,19145.0,74,-46,19145,57,19150,25
2016-12-15 10:53:00,10:53:03,10:53:42,40561,40639,19145.0,23,19150.0,55,19145.0,19145.0,19140.0,19145.0,46,24,19140,53,19150,54
2016-12-15 10:54:00,10:54:01,10:54:56,40649,40744,19140.0,49,19145.0,27,19140.0,19140.0,19130.0,19130.0,127,-127,19130,73,19135,105
2016-12-15 10:55:00,10:55:03,10:55:58,40746,40905,19130.0,73,19135.0,108,19130.0,19140.0,19125.0,19125.0,261,-99,19125,15,19130,70
2016-12-15 10:56:00,10:56:18,10:56:54,40920,41007,19125.0,32,19130.0,67,19125.0,19135.0,19125.0,19135.0,107,89,19135,26,19140,59
2016-12-15 10:57:00,10:57:02,10:57:21,41012,41048,19135.0,26,19140.0,59,19135.0,19135.0,19130.0,19130.0,30,-29,19130,56,19135,21
2016-12-15 10:58:00,10:58:00,10:58:58,41058,41164,19130.0,52,19135.0,22,19130.0,19140.0,19130.0,19135.0,61,21,19130,23,19135,29
2016-12-15 10:59:00,10:59:02,10:59:52,41170,41288,19130.0,51,19135.0,25,19135.0,19145.0,19135.0,19145.0,75,75,19140,62,19145,25
2016-12-15 11:00:00,11:00:00,11:00:53,41297,41432,19140.0,27,19145.0,55,19140.0,19145.0,19140.0,19145.0,117,-41,19140,61,19145,4
2016-12-15 11:01:00,11:01:03,11:01:57,41443,41541,19140.0,61,19145.0,16,19145.0,19145.0,19140.0,19140.0,61,-3,19140,57,19145,32
2016-12-15 11:02:00,11:02:04,11:02:47,41547,41587,19140.0,57,19145.0,34,19145.0,19145.0,19140.0,19140.0,13,-9,19140,50,19145,56
2016-12-15 11:03:00,11:03:04,11:03:59,41598,41660,19140.0,52,19145.0,50,19140.0,19145.0,19140.0,19140.0,37,3,19140,49,19145,23
2016-12-15 11:04:00,11:04:04,11:04:59,41665,41719,19140.0,49,19145.0,26,19140.0,19145.0,19140.0,19140.0,43,23,19140,73,19145,36
2016-12-15 11:05:00,11:05:00,11:05:56,41720,41764,19140.0,46,19145.0,33,19140.0,19145.0,19140.0,19145.0,12,-6,19140,72,19145,42
2016-12-15 11:06:00,11:06:00,11:06:59,41769,41829,19140.0,72,19145.0,40,19140.0,19145.0,19140.0,19145.0,19,3,19145,6,19150,57
2016-12-15 11:07:00,11:07:00,11:07:50,41830,41992,19140.0,72,19145.0,18,19145.0,19150.0,19140.0,19140.0,161,-29,19140,1,19145,57
2016-12-15 11:08:00,11:08:00,11:08:38,42009,42046,19140.0,57,19145.0,19,19140.0,19145.0,19140.0,19145.0,12,8,19145,58,19150,21
2016-12-15 11:09:00,11:09:00,11:09:51,42059,42153,19145.0,51,19150.0,43,19150.0,19160.0,19150.0,19160.0,83,83,19160,7,19165,62
2016-12-15 11:10:00,11:10:00,11:10:52,42168,42373,19160.0,61,19165.0,14,19165.0,19170.0,19160.0,19160.0,170,-46,19155,59,19160,1
2016-12-15 11:11:00,11:11:25,11:11:56,42399,42464,19160.0,49,19165.0,65,19165.0,19165.0,19160.0,19160.0,106,10,19160,2,19165,51
2016-12-15 11:12:00,11:12:00,11:12:59,42470,42617,19160.0,6,19165.0,51,19160.0,19175.0,19160.0,19165.0,111,39,19165,19,19170,48
2016-12-15 11:13:00,11:13:01,11:13:58,42621,42778,19165.0,29,19170.0,48,19170.0,19170.0,19165.0,19165.0,108,31,19165,36,19170,45
2016-12-15 11:14:00,11:14:04,11:14:59,42781,42880,19165.0,36,19170.0,45,19170.0,19170.0,19160.0,19160.0,105,-57,19160,25,19165,52
2016-12-15 11:15:00,11:15:03,11:15:40,42885,42933,19160.0,27,19165.0,49,19160.0,19165.0,19160.0,19165.0,40,4,19165,33,19170,31
2016-12-15 11:16:00,11:16:00,11:16:50,42940,42962,19165.0,35,19170.0,55,19165.0,19165.0,19165.0,19165.0,5,-5,19165,30,19170,57
2016-12-15 11:17:00,11:17:00,11:17:56,42971,43054,19165.0,32,19170.0,54,19165.0,19175.0,19165.0,19175.0,40,20,19170,60,19175,24
2016-12-15 11:18:00,11:18:00,11:18:56,43058,43204,19170.0,60,19175.0,26,19175.0,19180.0,19170.0,19170.0,135,31,19170,65,19175,22
2016-12-15 11:19:00,11:19:05,11:19:57,43218,43357,19170.0,60,19175.0,18,19175.0,19175.0,19170.0,19170.0,161,-25,19170,37,19175,22
2016-12-15 11:20:00,11:20:07,11:20:57,43362,43465,19170.0,39,19175.0,24,19170.0,19175.0,19170.0,19170.0,101,-87,19170,36,19175,33
2016-12-15 11:21:00,11:21:01,11:21:58,43468,43575,19170.0,36,19175.0,33,19175.0,19175.0,19165.0,19165.0,76,-72,19165,41,19170,28
2016-12-15 11:22:00,11:22:01,11:22:59,43580,43681,19165.0,42,19170.0,29,19170.0,19170.0,19160.0,19160.0,61,-21,19160,26,19165,34
2016-12-15 11:23:00,11:23:00,11:23:51,43683,43732,19160.0,26,19165.0,32,19160.0,19160.0,19160.0,19160.0,31,-31,19160,31,19165,38
2016-12-15 11:24:00,11:24:00,11:24:09,43738,43751,19160.0,25,19165.0,34,19160.0,19165.0,19160.0,19160.0,13,-11,19160,24,19165,35
2016-12-15 11:25:00,11:25:03,11:25:55,43761,43842,19160.0,25,19165.0,36,19160.0,19170.0,19160.0,19170.0,70,62,19165,29,19170,20
2016-12-15 11:26:00,11:26:00,11:26:58,43850,43882,19165.0,30,19170.0,21,19170.0,19170.0,19170.0,19170.0,5,5,19165,36,19170,38
2016-12-15 11:27:00,11:27:07,11:27:34,43888,43920,19165.0,37,19170.0,37,19165.0,19170.0,19165.0,19170.0,26,16,19165,41,19170,12
2016-12-15 11:28:00,11:28:13,11:28:56,43943,44110,19165.0,36,19170.0,44,19170.0,19180.0,19170.0,19175.0,180,58,19170,32,19175,32
2016-12-15 11:29:00,11:29:00,11:29:48,44116,44209,19170.0,29,19175.0,40,19170.0,19170.0,19170.0,19170.0,80,-26,19170,5,19175,39
2016-12-15 11:30:00,11:30:00,11:30:57,44225,44524,19170.0,26,19175.0,37,19175.0,19200.0,19175.0,19195.0,284,68,19195,6,19200,47
2016-12-15 11:31:00,11:31:01,11:31:51,44536,44788,19195.0,23,19200.0,43,19195.0,19205.0,19195.0,19200.0,273,11,19200,2,19205,46
2016-12-15 11:32:00,11:32:04,11:32:59,44806,44959,19200.0,24,19205.0,35,19200.0,19205.0,19190.0,19190.0,182,-180,19190,43,19195,30
2016-12-15 11:33:00,11:33:00,11:33:58,44960,45178,19190.0,44,19195.0,27,19190.0,19195.0,19185.0,19190.0,163,-74,19185,58,19190,12
2016-12-15 11:34:00,11:34:00,11:34:58,45182,45315,19185.0,58,19190.0,13,19190.0,19190.0,19185.0,19190.0,89,67,19190,4,19195,65
2016-12-15 11:35:00,11:35:01,11:35:59,45324,45512,19190.0,11,19195.0,63,19190.0,19195.0,19185.0,19195.0,169,-59,19195,36,19200,64
2016-12-15 11:36:00,11:36:03,11:36:44,45517,45745,19195.0,37,19200.0,65,19200.0,19210.0,19200.0,19210.0,258,48,19205,58,19210,36
2016-12-15 11:37:00,11:37:00,11:37:57,45756,45969,19205.0,60,19210.0,39,19210.0,19215.0,19210.0,19215.0,200,30,19205,59,19215,54
2016-12-15 11:38:00,11:38:00,11:38:53,45973,46099,19205.0,60,19215.0,54,19210.0,19210.0,19205.0,19205.0,125,11,19200,43,19205,33
2016-12-15 11:39:00,11:39:05,11:39:54,46113,46203,19200.0,62,19205.0,11,19205.0,19210.0,19200.0,19210.0,48,40,19210,35,19215,49
2016-12-15 11:40:00,11:40:07,11:40:56,46215,46417,19210.0,37,19215.0,49,19215.0,19225.0,19215.0,19215.0,234,136,19210,31,19215,20
2016-12-15 11:41:00,11:41:00,11:41:49,46428,46524,19210.0,56,19215.0,25,19215.0,19215.0,19215.0,19215.0,88,0,19210,35,19215,56
2016-12-15 11:42:00,11:42:00,11:42:40,46533,46724,19210.0,62,19215.0,51,19215.0,19220.0,19210.0,19215.0,239,73,19215,34,19220,43
2016-12-15 11:43:00,11:43:03,11:43:57,46750,46865,19215.0,37,19220.0,61,19220.0,19220.0,19210.0,19210.0,94,-92,19205,39,19210,39
2016-12-15 11:44:00,11:44:03,11:44:49,46877,47048,19205.0,50,19210.0,41,19210.0,19210.0,19205.0,19205.0,168,42,19205,13,19210,60
2016-12-15 11:45:00,11:45:00,11:45:58,47057,47180,19205.0,11,19210.0,60,19205.0,19210.0,19205.0,19205.0,77,-63,19200,72,19205,20
2016-12-15 11:46:00,11:46:03,11:46:57,47191,47352,19200.0,73,19205.0,25,19205.0,19205.0,19195.0,19195.0,156,2,19190,51,19195,21
2016-12-15 11:47:00,11:47:01,11:47:59,47360,47512,19190.0,26,19195.0,41,19190.0,19190.0,19185.0,19185.0,102,-6,19185,49,19190,39
2016-12-15 11:48:00,11:48:01,11:48:57,47515,47617,19185.0,49,19190.0,39,19185.0,19190.0,19185.0,19190.0,81,-6,19190,19,19195,68
2016-12-15 11:49:00,11:49:03,11:49:50,47625,47734,19190.0,7,19195.0,86,19190.0,19190.0,19185.0,19185.0,81,-3,19180,58,19185,9
2016-12-15 11:50:00,11:50:00,11:50:53,47741,47951,19180.0,58,19185.0,8,19185.0,19185.0,19180.0,19180.0,246,-188,19175,36,19180,25
2016-12-15 11:51:00,11:51:03,11:51:52,47966,48083,19175.0,62,19180.0,32,19175.0,19175.0,19175.0,19175.0,85,-35,19175,18,19180,59
2016-12-15 11:52:00,11:52:13,11:52:57,48105,48181,19175.0,22,19180.0,56,19180.0,19180.0,19180.0,19180.0,80,-22,19180,16,19185,32
2016-12-15 11:53:00,11:53:14,11:53:57,48197,48313,19180.0,12,19185.0,65,19180.0,19180.0,19170.0,19175.0,93,11,19170,56,19175,13
2016-12-15 11:54:00,11:54:02,11:54:52,48321,48435,19170.0,56,19175.0,25,19175.0,19180.0,19175.0,19175.0,97,37,19170,61,19175,3
2016-12-15 11:55:00,11:55:00,11:55:43,48446,48533,19170.0,61,19175.0,16,19175.0,19175.0,19175.0,19175.0,66,-4,19170,59,19175,24
2016-12-15 11:56:00,11:56:01,11:56:33,48557,48631,19170.0,51,19175.0,23,19175.0,19175.0,19165.0,19175.0,60,26,19175,23,19180,28
2016-12-15 11:57:00,11:57:20,11:57:56,48674,48742,19175.0,88,19180.0,35,19180.0,19180.0,19175.0,19175.0,106,54,19170,25,19175,40
2016-12-15 11:58:00,11:58:08,11:58:29,48754,48758,19170.0,51,19175.0,29,19175.0,19175.0,19175.0,19175.0,2,2,19170,53,19175,31
2016-12-15 11:59:00,11:59:03,11:59:56,48766,48852,19170.0,53,19175.0,27,19170.0,19170.0,19170.0,19170.0,53,-53,19165,57,19170,8
2016-12-15 12:00:00,12:00:08,12:00:55,48868,49069,19165.0,59,19170.0,19,19170.0,19170.0,19155.0,19160.0,343,-127,19160,9,19165,48
2016-12-15 12:01:00,12:01:00,12:01:50,49079,49191,19160.0,17,19165.0,47,19160.0,19165.0,19150.0,19150.0,100,-96,19150,40,19155,49
2016-12-15 12:02:00,12:02:01,12:02:20,49201,49381,19150.0,57,19155.0,47,19150.0,19155.0,19150.0,19155.0,253,103,19155,39,19160,32
2016-12-15 12:03:00,12:03:08,12:03:40,49415,49552,19155.0,32,19160.0,57,19160.0,19160.0,19155.0,19155.0,121,-3,19155,57,19160,29
2016-12-15 12:04:00,12:04:14,12:04:55,49567,49686,19155.0,61,19160.0,26,19155.0,19165.0,19155.0,19165.0,94,-4,19160,61,19170,54
2016-12-15 12:05:00,12:05:06,12:05:57,49696,49798,19165.0,5,19170.0,58,19165.0,19165.0,19160.0,19165.0,65,-4,19160,49,19165,15
2016-12-15 12:06:00,12:06:12,12:06:58,49814,49886,19160.0,54,19165.0,27,19165.0,19165.0,19160.0,19160.0,63,29,19155,69,19160,3
2016-12-15 12:07:00,12:07:25,12:07:56,49908,49997,19155.0,66,19160.0,28,19160.0,19165.0,19160.0,19165.0,130,94,19165,16,19165,23
2016-12-15 12:08:00,12:08:01,12:08:47,49999,50183,19160.0,57,19165.0,23,19165.0,19185.0,19165.0,19180.0,213,17,19180,15,19185,35
2016-12-15 12:09:00,12:09:00,12:09:52,50198,50273,19180.0,20,19185.0,57,19185.0,19185.0,19180.0,19180.0,61,-57,19180,29,19185,59
2016-12-15 12:10:00,12:10:36,12:10:52,50283,50344,19180.0,27,19185.0,61,19185.0,19190.0,19180.0,19185.0,67,-15,19180,30,19185,24
2016-12-15 12:11:00,12:11:01,12:11:50,50352,50419,19180.0,38,19185.0,23,19185.0,19185.0,19180.0,19180.0,43,11,19180,57,19185,24
2016-12-15 12:12:00,12:12:01,12:12:45,50427,50487,19180.0,56,19185.0,33,19185.0,19185.0,19180.0,19185.0,49,-18,19180,45,19185,17
2016-12-15 12:13:00,12:13:02,12:13:57,50495,50672,19180.0,44,19185.0,40,19185.0,19195.0,19180.0,19195.0,250,200,19195,10,19200,74
2016-12-15 12:14:00,12:14:04,12:14:59,50683,50797,19195.0,23,19200.0,72,19195.0,19195.0,19195.0,19195.0,103,-11,19195,55,19195,22
2016-12-15 12:15:00,12:15:07,12:15:59,50804,50911,19190.0,82,19195.0,13,19195.0,19200.0,19195.0,19200.0,148,140,19195,68,19200,19
2016-12-15 12:16:00,12:16:00,12:16:59,50915,51000,19195.0,68,19200.0,14,19200.0,19210.0,19200.0,19210.0,123,121,19205,80,19210,37
2016-12-15 12:17:00,12:17:19,12:17:52,51012,51342,19205.0,83,19210.0,38,19210.0,19235.0,19210.0,19235.0,472,340,19235,17,19240,191
2016-12-15 12:18:00,12:18:10,12:18:46,51371,51579,19235.0,50,19240.0,182,19240.0,19240.0,19230.0,19235.0,338,52,19230,54,19235,41
2016-12-15 12:19:00,12:19:01,12:19:59,51604,51767,19230.0,79,19235.0,33,19235.0,19235.0,19230.0,19230.0,171,-31,19225,91,19230,2
2016-12-15 12:20:00,12:20:01,12:20:31,51770,51867,19225.0,91,19230.0,2,19230.0,19230.0,19225.0,19225.0,118,-98,19225,8,19230,74
2016-12-15 12:21:00,12:21:03,12:21:53,51909,52028,19225.0,18,19230.0,71,19225.0,19225.0,19220.0,19220.0,99,-82,19220,23,19225,69
2016-12-15 12:22:00,12:22:11,12:22:57,52049,52123,19220.0,29,19225.0,74,19225.0,19225.0,19225.0,19225.0,34,16,19220,66,19225,16
2016-12-15 12:23:00,12:23:01,12:23:55,52127,52182,19220.0,64,19225.0,7,19225.0,19225.0,19225.0,19225.0,6,6,19220,61,19225,16
2016-12-15 12:24:00,12:24:03,12:24:58,52185,52273,19220.0,64,19225.0,20,19220.0,19225.0,19220.0,19220.0,64,-6,19220,30,19225,45
2016-12-15 12:25:00,12:25:08,12:25:59,52279,52319,19220.0,32,19225.0,49,19220.0,19220.0,19220.0,19220.0,11,-11,19220,25,19225,76
2016-12-15 12:26:00,12:26:06,12:26:57,52326,52390,19220.0,28,19225.0,76,19220.0,19225.0,19220.0,19225.0,81,65,19225,40,19230,37
2016-12-15 12:27:00,12:27:00,12:27:55,52393,52571,19225.0,39,19230.0,59,19225.0,19235.0,19225.0,19230.0,191,45,19230,44,19235,69
2016-12-15 12:28:00,12:28:00,12:28:59,52574,52801,19230.0,43,19235.0,65,19230.0,19245.0,19230.0,19240.0,250,40,19240,14,19245,74
2016-12-15 12:29:00,12:29:01,12:29:52,52809,52907,19240.0,46,19245.0,66,19240.0,19245.0,19240.0,19245.0,82,64,19240,40,19245,50
2016-12-15 12:30:00,12:30:02,12:30:47,52915,53164,19240.0,42,19245.0,52,19240.0,19270.0,19240.0,19260.0,393,237,19260,17,19265,60
2016-12-15 12:31:00,12:31:01,12:31:52,53188,53458,19260.0,37,19265.0,64,19265.0,19275.0,19265.0,19270.0,392,109,19270,29,19275,76
2016-12-15 12:32:00,12:32:02,12:32:56,53477,53821,19270.0,35,19275.0,75,19270.0,19285.0,19270.0,19280.0,503,143,19280,34,19285,20
2016-12-15 12:33:00,12:33:07,12:33:54,53843,54029,19280.0,48,19285.0,32,19285.0,19290.0,19275.0,19280.0,198,-140,19280,10,19285,49
2016-12-15 12:34:00,12:34:04,12:34:55,54042,54264,19280.0,51,19285.0,57,19280.0,19285.0,19275.0,19280.0,195,-5,19280,2,19285,62
2016-12-15 12:35:00,12:35:00,12:35:32,54272,54355,19280.0,5,19285.0,63,19280.0,19280.0,19275.0,19275.0,51,-13,19275,28,19280,53
2016-12-15 12:36:00,12:36:22,12:36:47,54389,54437,19275.0,31,19280.0,69,19275.0,19275.0,19275.0,19275.0,57,-30,19275,19,19280,51
2016-12-15 12:37:00,12:37:02,12:37:39,54453,54527,19275.0,24,19280.0,52,19275.0,19275.0,19275.0,19275.0,70,-48,19275,20,19280,54
2016-12-15 12:38:00,12:38:04,12:38:59,54562,54703,19275.0,10,19280.0,63,19275.0,19280.0,19270.0,19280.0,116,-10,19275,51,19280,50
2016-12-15 12:39:00,12:39:00,12:39:52,54707,54819,19275.0,51,19280.0,52,19280.0,19285.0,19275.0,19280.0,146,-56,19280,29,19285,62
2016-12-15 12:40:00,12:40:02,12:40:54,54825,54879,19280.0,35,19285.0,62,19280.0,19285.0,19280.0,19285.0,57,25,19285,30,19290,30
2016-12-15 12:41:00,12:41:00,12:41:42,54891,55038,19285.0,21,19290.0,53,19285.0,19285.0,19265.0,19270.0,198,-134,19270,47,19275,36
2016-12-15 12:42:00,12:42:16,12:42:52,55051,55166,19270.0,52,19275.0,42,19270.0,19275.0,19265.0,19265.0,96,-87,19265,3,19270,66
2016-12-15 12:43:00,12:43:05,12:43:47,55180,55230,19265.0,8,19270.0,70,19265.0,19265.0,19260.0,19260.0,18,-16,19260,39,19265,43
2016-12-15 12:44:00,12:44:18,12:44:59,55241,55373,19260.0,45,19265.0,47,19265.0,19270.0,19265.0,19270.0,160,88,19270,9,19275,51
2016-12-15 12:45:00,12:45:27,12:45:32,55408,55432,19270.0,26,19275.0,50,19270.0,19275.0,19270.0,19275.0,28,4,19270,8,19275,58
2016-12-15 12:46:00,12:46:02,12:46:45,55457,55604,19270.0,26,19275.0,50,19275.0,19275.0,19275.0,19275.0,129,65,19275,20,19280,61
2016-12-15 12:47:00,12:47:03,12:47:53,55615,55759,19275.0,23,19280.0,64,19280.0,19280.0,19270.0,19270.0,179,-89,19270,1,19275,75
2016-12-15 12:48:00,12:48:06,12:48:57,55771,55826,19270.0,25,19275.0,63,19270.0,19270.0,19270.0,19270.0,24,2,19270,8,19275,78
2016-12-15 12:49:00,12:49:02,12:49:02,55833,55835,19270.0,6,19275.0,82,19270.0,19270.0,19270.0,19270.0,5,-5,19270,8,19275,85
2016-12-15 12:50:00,12:50:05,12:50:47,55866,55893,19270.0,20,19275.0,83,19270.0,19270.0,19270.0,19270.0,6,-6,19270,12,19275,77
2016-12-15 12:51:00,12:51:01,12:51:46,55904,55977,19270.0,51,19275.0,77,19270.0,19270.0,19270.0,19270.0,86,-40,19270,3,19275,72
2016-12-15 12:52:00,12:52:19,12:52:41,56000,56024,19270.0,36,19275.0,79,19270.0,19275.0,19270.0,19275.0,13,7,19270,43,19275,82
2016-12-15 12:53:00,12:53:04,12:53:21,56038,56055,19270.0,51,19275.0,38,19270.0,19275.0,19270.0,19275.0,10,2,19270,49,19275,50
2016-12-15 12:54:00,12:54:07,12:54:58,56075,56311,19270.0,52,19275.0,54,19270.0,19290.0,19270.0,19290.0,370,360,19285,35,19290,16
2016-12-15 12:55:00,12:55:11,12:55:58,56338,56533,19285.0,38,19290.0,54,19290.0,19300.0,19290.0,19300.0,212,82,19300,22,19305,45
2016-12-15 12:56:00,12:56:05,12:56:59,56544,56716,19300.0,44,19305.0,43,19300.0,19310.0,19300.0,19305.0,159,-25,19300,18,19305,54
2016-12-15 12:57:00,12:57:40,12:57:57,56742,56886,19300.0,79,19305.0,56,19305.0,19305.0,19295.0,19300.0,205,1,19295,45,19300,12
2016-12-15 12:58:00,12:58:02,12:58:55,56896,56995,19295.0,57,19300.0,8,19300.0,19300.0,19300.0,19300.0,79,-9,19300,52,19305,50
2016-12-15 12:59:00,12:59:08,12:59:33,56998,57017,19300.0,54,19305.0,54,19305.0,19305.0,19300.0,19305.0,11,9,19300,55,19305,44
2016-12-15 13:00:00,13:00:00,13:00:59,57029,57330,19300.0,54,19305.0,48,19305.0,19325.0,19305.0,19325.0,349,267,19320,10,19325,55
2016-12-15 13:01:00,13:01:00,13:01:45,57334,57484,19320.0,13,19325.0,55,19325.0,19325.0,19320.0,19320.0,187,56,19315,51,19320,7
2016-12-15 13:02:00,13:02:08,13:02:58,57509,57650,19315.0,61,19320.0,39,19315.0,19315.0,19310.0,19310.0,147,-77,19310,30,19315,162
2016-12-15 13:03:00,13:03:01,13:03:59,57655,57886,19310.0,32,19315.0,166,19310.0,19320.0,19310.0,19315.0,256,-162,19315,10,19320,159
2016-12-15 13:04:00,13:04:02,13:04:47,57892,58144,19315.0,8,19320.0,158,19315.0,19320.0,19310.0,19315.0,406,254,19315,35,19320,19
2016-12-15 13:05:00,13:05:11,13:05:53,58173,58407,19315.0,52,19320.0,34,19315.0,19330.0,19315.0,19320.0,394,-6,19320,19,19325,39
2016-12-15 13:06:00,13:06:00,13:06:57,58416,58920,19320.0,27,19325.0,42,19320.0,19340.0,19310.0,19310.0,715,-391,19310,9,19315,34
2016-12-15 13:07:00,13:07:04,13:07:54,58938,59145,19310.0,14,19315.0,49,19310.0,19320.0,19310.0,19315.0,213,69,19310,54,19315,12
2016-12-15 13:08:00,13:08:00,13:08:41,59155,59231,19310.0,55,19315.0,34,19315.0,19315.0,19315.0,19315.0,62,62,19310,55,19315,6
2016-12-15 13:09:00,13:09:16,13:09:56,59259,59354,19310.0,55,19315.0,37,19315.0,19315.0,19315.0,19315.0,162,-40,19315,7,19320,59
2016-12-15 13:10:00,13:10:10,13:10:33,59375,59459,19315.0,31,19320.0,58,19315.0,19315.0,19315.0,19315.0,71,-37,19310,60,19320,56
2016-12-15 13:11:00,13:11:06,13:11:41,59486,59564,19315.0,39,19320.0,64,19320.0,19320.0,19310.0,19310.0,68,-50,19310,51,19315,28
2016-12-15 13:12:00,13:12:07,13:12:56,59586,59733,19310.0,58,19315.0,34,19315.0,19315.0,19305.0,19305.0,135,-35,19300,27,19305,46
2016-12-15 13:13:00,13:13:25,13:13:55,59762,59855,19300.0,34,19305.0,57,19305.0,19310.0,19305.0,19310.0,86,56,19305,21,19310,45
2016-12-15 13:14:00,13:14:00,13:14:53,59857,59999,19305.0,30,19310.0,45,19305.0,19310.0,19300.0,19305.0,155,55,19305,7,19310,55
2016-12-15 13:15:00,13:15:06,13:15:59,60005,60136,19305.0,16,19310.0,62,19310.0,19310.0,19305.0,19310.0,119,86,19310,5,19315,54
2016-12-15 13:16:00,13:16:00,13:16:53,60140,60254,19310.0,8,19315.0,54,19310.0,19310.0,19310.0,19310.0,63,-1,19305,40,19310,29
2016-12-15 13:17:00,13:17:10,13:17:52,60273,60417,19305.0,35,19310.0,47,19310.0,19310.0,19305.0,19305.0,153,107,19305,23,19305,36
2016-12-15 13:18:00,13:18:00,13:18:58,60420,60527,19305.0,24,19310.0,37,19310.0,19310.0,19300.0,19310.0,109,47,19305,40,19310,37
2016-12-15 13:19:00,13:19:03,13:19:59,60531,60632,19305.0,43,19310.0,42,19310.0,19315.0,19310.0,19315.0,56,56,19310,48,19315,36
2016-12-15 13:20:00,13:20:00,13:20:55,60635,60913,19310.0,48,19315.0,36,19310.0,19315.0,19305.0,19305.0,320,-94,19305,19,19310,49
2016-12-15 13:21:00,13:21:00,13:21:57,60921,60972,19305.0,26,19310.0,53,19305.0,19310.0,19305.0,19310.0,18,14,19305,31,19310,65
2016-12-15 13:22:00,13:22:01,13:22:53,60976,61092,19305.0,32,19310.0,65,19310.0,19310.0,19305.0,19305.0,90,-46,19305,27,19310,52
2016-12-15 13:23:00,13:23:06,13:23:53,61107,61156,19305.0,34,19310.0,50,19310.0,19310.0,19310.0,19310.0,14,14,19305,31,19310,44
2016-12-15 13:24:00,13:24:02,13:24:52,61164,61229,19305.0,56,19310.0,45,19305.0,19310.0,19305.0,19310.0,42,26,19305,30,19310,38
2016-12-15 13:25:00,13:25:01,13:25:47,61234,61375,19305.0,29,19310.0,38,19310.0,19310.0,19300.0,19305.0,192,-60,19300,35,19305,81
2016-12-15 13:26:00,13:26:02,13:26:55,61383,61600,19300.0,30,19305.0,86,19300.0,19300.0,19285.0,19285.0,216,-88,19285,38,19290,27
2016-12-15 13:27:00,13:27:12,13:27:50,61623,61755,19285.0,25,19290.0,57,19285.0,19290.0,19280.0,19290.0,195,5,19285,36,19290,25
2016-12-15 13:28:00,13:28:03,13:28:48,61772,61923,19285.0,38,19290.0,35,19285.0,19290.0,19285.0,19285.0,155,-111,19280,46,19290,43
2016-12-15 13:29:00,13:29:12,13:29:54,61946,62106,19280.0,36,19285.0,26,19285.0,19290.0,19285.0,19285.0,243,-53,19285,8,19290,36
2016-12-15 13:30:00,13:30:00,13:30:51,62115,62190,19285.0,2,19290.0,43,19285.0,19285.0,19280.0,19280.0,49,-7,19275,21,19280,49
2016-12-15 13:31:00,13:31:02,13:31:57,62204,62324,19275.0,11,19280.0,57,19275.0,19280.0,19275.0,19280.0,119,47,19275,57,19280,36
2016-12-15 13:32:00,13:32:04,13:32:56,62331,62378,19275.0,56,19280.0,44,19280.0,19280.0,19280.0,19280.0,24,24,19275,54,19280,35
2016-12-15 13:33:00,13:33:01,13:33:55,62382,62464,19275.0,54,19280.0,43,19275.0,19280.0,19275.0,19280.0,25,9,19275,56,19280,35
2016-12-15 13:34:00,13:34:08,13:34:59,62473,62548,19275.0,60,19280.0,36,19275.0,19280.0,19275.0,19280.0,71,-31,19275,22,19280,35
2016-12-15 13:35:00,13:35:01,13:35:45,62554,62589,19275.0,22,19280.0,36,19275.0,19280.0,19275.0,19280.0,9,7,19275,30,19280,57
2016-12-15 13:36:00,13:36:03,13:36:58,62601,62772,19275.0,32,19280.0,62,19275.0,19285.0,19275.0,19280.0,207,-61,19280,1,19285,46
2016-12-15 13:37:00,13:37:04,13:37:47,62782,62886,19280.0,17,19285.0,74,19280.0,19290.0,19280.0,19290.0,112,-2,19285,17,19290,66
2016-12-15 13:38:00,13:38:03,13:38:56,62895,63039,19285.0,29,19290.0,66,19290.0,19295.0,19290.0,19295.0,196,142,19290,58,19295,9
2016-12-15 13:39:00,13:39:05,13:39:50,63053,63261,19290.0,66,19295.0,12,19295.0,19295.0,19285.0,19285.0,297,-117,19285,12,19290,70
2016-12-15 13:40:00,13:40:00,13:40:51,63270,63338,19285.0,65,19290.0,59,19285.0,19285.0,19285.0,19285.0,21,15,19280,78,19285,25
2016-12-15 13:41:00,13:41:00,13:41:59,63345,63539,19280.0,78,19285.0,27,19285.0,19290.0,19280.0,19285.0,258,128,19285,2,19285,4
2016-12-15 13:42:00,13:42:02,13:42:59,63546,63750,19280.0,53,19285.0,3,19285.0,19285.0,19280.0,19280.0,280,-186,19280,6,19285,67
2016-12-15 13:43:00,13:43:02,13:43:59,63755,63871,19280.0,22,19285.0,67,19285.0,19285.0,19280.0,19285.0,109,55,19285,27,19290,93
2016-12-15 13:44:00,13:44:02,13:44:57,63879,63955,19285.0,37,19290.0,95,19285.0,19285.0,19280.0,19285.0,41,-39,19280,46,19285,35
2016-12-15 13:45:00,13:45:01,13:45:55,63962,64072,19280.0,48,19285.0,38,19280.0,19285.0,19275.0,19280.0,81,-17,19275,55,19280,34
2016-12-15 13:46:00,13:46:11,13:46:56,64088,64173,19275.0,55,19280.0,56,19275.0,19275.0,19270.0,19275.0,59,5,19275,32,19280,66
2016-12-15 13:47:00,13:47:10,13:47:55,64182,64272,19275.0,38,19280.0,65,19280.0,19280.0,19275.0,19275.0,110,76,19270,81,19280,73
2016-12-15 13:48:00,13:48:01,13:48:43,64282,64355,19270.0,76,19275.0,11,19275.0,19280.0,19270.0,19280.0,52,22,19275,48,19280,47
2016-12-15 13:49:00,13:49:11,13:49:58,64372,64756,19275.0,42,19280.0,61,19275.0,19280.0,19265.0,19265.0,599,-91,19265,1,19270,69
2016-12-15 13:50:00,13:50:00,13:50:50,64760,64918,19265.0,4,19270.0,69,19265.0,19270.0,19265.0,19265.0,196,118,19265,75,19270,7
2016-12-15 13:51:00,13:51:03,13:51:51,64939,65061,19265.0,75,19270.0,39,19265.0,19265.0,19260.0,19260.0,168,-140,19260,50,19265,75
2016-12-15 13:52:00,13:52:01,13:52:59,65072,65281,19260.0,39,19265.0,76,19260.0,19265.0,19255.0,19260.0,186,-72,19260,4,19265,86
2016-12-15 13:53:00,13:53:01,13:53:59,65285,65651,19260.0,4,19265.0,89,19260.0,19260.0,19240.0,19240.0,491,-306,19240,8,19245,96
2016-12-15 13:54:00,13:54:00,13:54:58,65654,65853,19240.0,8,19245.0,96,19245.0,19245.0,19235.0,19235.0,201,35,19235,39,19240,86
2016-12-15 13:55:00,13:55:15,13:55:59,65884,66058,19235.0,100,19240.0,100,19240.0,19240.0,19230.0,19230.0,211,-185,19230,57,19235,84
2016-12-15 13:56:00,13:56:01,13:56:53,66063,66334,19230.0,57,19235.0,91,19230.0,19240.0,19225.0,19240.0,432,18,19235,76,19240,57
2016-12-15 13:57:00,13:57:03,13:57:49,66353,66588,19235.0,77,19240.0,97,19240.0,19240.0,19230.0,19240.0,340,-100,19235,47,19240,65
2016-12-15 13:58:00,13:58:01,13:58:59,66613,66917,19235.0,51,19240.0,77,19235.0,19235.0,19225.0,19230.0,463,-217,19225,103,19230,3
2016-12-15 13:59:00,13:59:01,13:59:59,66925,67521,19225.0,112,19230.0,30,19230.0,19245.0,19230.0,19245.0,991,177,19240,114,19245,63
2016-12-15 14:00:00,14:00:00,14:00:58,67522,68312,19240.0,113,19245.0,59,19240.0,19260.0,19220.0,19255.0,1594,608,19250,111,19255,70
2016-12-15 14:01:00,14:01:00,14:01:57,68314,68541,19250.0,111,19255.0,77,19255.0,19260.0,19250.0,19255.0,291,-57,19250,121,19255,84
2016-12-15 14:02:00,14:02:05,14:02:59,68550,68754,19250.0,128,19255.0,88,19255.0,19265.0,19255.0,19260.0,267,89,19255,102,19260,15
2016-12-15 14:03:00,14:03:02,14:03:58,68762,68913,19255.0,103,19260.0,30,19260.0,19265.0,19260.0,19265.0,129,79,19260,98,19265,20
2016-12-15 14:04:00,14:04:00,14:04:58,68917,69301,19260.0,98,19265.0,16,19265.0,19270.0,19255.0,19265.0,536,-17,19260,73,19265,54
2016-12-15 14:05:00,14:05:02,14:05:52,69313,69606,19260.0,19,19265.0,108,19265.0,19280.0,19255.0,19280.0,524,284,19275,89,19280,143
2016-12-15 14:06:00,14:06:02,14:06:54,69630,69738,19275.0,104,19280.0,158,19275.0,19280.0,19270.0,19270.0,146,-96,19270,104,19275,186
2016-12-15 14:07:00,14:07:10,14:07:57,69758,69873,19270.0,77,19275.0,170,19270.0,19275.0,19270.0,19270.0,162,-138,19265,86,19270,61
2016-12-15 14:08:00,14:08:00,14:08:59,69882,70002,19265.0,90,19270.0,79,19270.0,19270.0,19260.0,19260.0,192,-12,19260,38,19265,60
2016-12-15 14:09:00,14:09:00,14:09:59,70003,70161,19260.0,71,19265.0,22,19265.0,19265.0,19255.0,19265.0,197,-57,19260,25,19265,7
