,ST,ET,sidx,eidx,bB,bBS,bA,bAS,O,H,L,C,V,OF,eB,eBS,eA,eAS
2017-02-10 08:00:00,08:00:00,08:00:59,4644,6476,19225.0,25,19230.0,48,19225.0,19295.0,19220.0,19235.0,3459,55,19235,17,19240,46
2017-02-10 08:01:00,08:01:01,08:01:56,6482,7127,19235.0,28,19240.0,46,19240.0,19240.0,19225.0,19230.0,954,26,19230,23,19235,39
2017-02-10 08:02:00,08:02:00,08:02:59,7139,7852,19230.0,39,19235.0,46,19230.0,19250.0,19220.0,19220.0,1157,203,19215,30,19220,26
2017-02-10 08:03:00,08:03:00,08:03:58,7853,8707,19225.0,26,19230.0,23,19215.0,19220.0,19190.0,19210.0,1320,-82,19210,34,19215,18
2017-02-10 08:04:00,08:04:00,08:04:57,8712,9146,19210.0,40,19215.0,13,19210.0,19220.0,19205.0,19215.0,629,-113,19210,26,19215,17
2017-02-10 08:05:00,08:05:00,08:05:59,9155,9415,19210.0,37,19215.0,14,19210.0,19215.0,19205.0,19215.0,301,0,19210,14,19215,35
2017-02-10 08:06:00,08:06:03,08:06:59,9422,9816,19210.0,25,19215.0,32,19215.0,19235.0,19215.0,19235.0,551,182,19230,30,19235,32
2017-02-10 08:07:00,08:07:00,08:07:57,9818,10190,19230.0,25,19235.0,32,19235.0,19235.0,19215.0,19225.0,504,-164,19220,30,19225,30
2017-02-10 08:08:00,08:08:00,08:08:58,10193,10422,19220.0,28,19225.0,31,19225.0,19225.0,19210.0,19220.0,228,-32,19215,30,19220,47
2017-02-10 08:09:00,08:09:02,08:09:59,10428,10584,19215.0,30,19220.0,48,19220.0,19225.0,19215.0,19220.0,169,57,19215,56,19220,47
2017-02-10 08:10:00,08:10:02,08:10:54,10590,10744,19215.0,56,19220.0,48,19220.0,19220.0,19215.0,19220.0,152,6,19215,40,19220,41
2017-02-10 08:11:00,08:11:00,08:11:57,10755,10925,19215.0,40,19220.0,44,19220.0,19220.0,19215.0,19215.0,135,40,19215,35,19220,48
2017-02-10 08:12:00,08:12:00,08:12:59,10939,11238,19215.0,56,19220.0,38,19220.0,19230.0,19220.0,19225.0,309,97,19225,48,19230,37
2017-02-10 08:13:00,08:13:00,08:13:55,11242,11425,19225.0,49,19230.0,37,19230.0,19230.0,19225.0,19230.0,214,150,19230,31,19235,51
2017-02-10 08:14:00,08:14:01,08:14:56,11445,11752,19230.0,57,19235.0,35,19235.0,19235.0,19215.0,19220.0,388,-133,19215,37,19220,17
2017-02-10 08:15:00,08:15:00,08:15:59,11763,12203,19215.0,42,19220.0,30,19220.0,19225.0,19215.0,19215.0,586,48,19210,49,19215,28
2017-02-10 08:16:00,08:16:03,08:16:59,12211,12512,19210.0,54,19215.0,23,19215.0,19215.0,19205.0,19215.0,339,117,19210,49,19215,16
2017-02-10 08:17:00,08:17:00,08:17:55,12513,12786,19210.0,48,19215.0,28,19215.0,19225.0,19215.0,19220.0,277,99,19215,58,19220,46
2017-02-10 08:18:00,08:18:00,08:18:53,12796,12982,19215.0,50,19220.0,47,19220.0,19230.0,19220.0,19225.0,215,129,19220,71,19225,22
2017-02-10 08:19:00,08:19:00,08:19:55,12989,13308,19220.0,71,19225.0,22,19225.0,19235.0,19225.0,19225.0,351,6,19225,23,19230,40
2017-02-10 08:20:00,08:20:04,08:20:55,13330,13466,19225.0,41,19230.0,35,19230.0,19235.0,19225.0,19235.0,80,-6,19230,59,19235,24
2017-02-10 08:21:00,08:21:01,08:21:54,13476,13729,19230.0,47,19235.0,48,19235.0,19245.0,19225.0,19240.0,466,-52,19235,46,19240,32
2017-02-10 08:22:00,08:22:00,08:22:54,13737,14004,19235.0,40,19240.0,38,19240.0,19250.0,19240.0,19245.0,379,193,19240,49,19250,69
2017-02-10 08:23:00,08:23:00,08:23:59,14014,14313,19240.0,51,19245.0,3,19245.0,19245.0,19230.0,19240.0,452,-72,19235,44,19245,43
2017-02-10 08:24:00,08:24:00,08:24:52,14318,14574,19240.0,13,19245.0,42,19240.0,19240.0,19235.0,19240.0,239,-60,19235,38,19240,23
2017-02-10 08:25:00,08:25:00,08:25:54,14587,14780,19235.0,40,19240.0,25,19240.0,19245.0,19235.0,19235.0,145,-69,19235,17,19240,49
2017-02-10 08:26:00,08:26:09,08:26:51,14802,14962,19235.0,42,19240.0,31,19240.0,19245.0,19240.0,19240.0,181,-23,19235,34,19240,31
2017-02-10 08:27:00,08:27:09,08:27:54,14976,15086,19235.0,40,19240.0,34,19240.0,19245.0,19235.0,19240.0,77,-25,19235,43,19240,24
2017-02-10 08:28:00,08:28:00,08:28:59,15094,15278,19235.0,38,19240.0,29,19240.0,19245.0,19240.0,19245.0,254,-64,19245,16,19250,66
2017-02-10 08:29:00,08:29:05,08:29:58,15290,15480,19245.0,29,19250.0,60,19245.0,19250.0,19240.0,19240.0,195,-141,19240,22,19245,37
2017-02-10 08:30:00,08:30:08,08:30:57,15505,15642,19240.0,36,19245.0,30,19245.0,19250.0,19240.0,19250.0,86,14,19245,29,19250,43
2017-02-10 08:31:00,08:31:07,08:31:45,15654,15834,19245.0,33,19250.0,48,19250.0,19250.0,19235.0,19235.0,195,-183,19235,18,19240,36
2017-02-10 08:32:00,08:32:08,08:32:58,15864,16004,19235.0,24,19240.0,55,19240.0,19240.0,19235.0,19240.0,119,51,19235,23,19240,39
2017-02-10 08:33:00,08:33:17,08:33:59,16031,16150,19235.0,18,19240.0,94,19235.0,19240.0,19235.0,19240.0,93,1,19235,46,19240,37
2017-02-10 08:34:00,08:34:09,08:34:30,16155,16187,19235.0,46,19240.0,37,19240.0,19240.0,19235.0,19235.0,35,-15,19235,30,19240,54
2017-02-10 08:35:00,08:35:02,08:35:50,16209,16280,19235.0,52,19240.0,48,19235.0,19240.0,19235.0,19240.0,33,29,19235,57,19240,48
2017-02-10 08:36:00,08:36:05,08:36:58,16289,16458,19235.0,58,19240.0,47,19235.0,19240.0,19230.0,19240.0,151,-43,19235,29,19240,52
2017-02-10 08:37:00,08:37:00,08:37:54,16465,16602,19235.0,32,19240.0,48,19235.0,19245.0,19230.0,19245.0,198,102,19240,126,19245,55
2017-02-10 08:38:00,08:38:07,08:38:58,16608,16754,19240.0,128,19245.0,68,19240.0,19245.0,19235.0,19245.0,286,-150,19240,117,19245,55
2017-02-10 08:39:00,08:39:06,08:39:51,16764,16894,19240.0,121,19245.0,58,19245.0,19245.0,19240.0,19245.0,176,-144,19240,87,19245,47
2017-02-10 08:40:00,08:40:00,08:40:50,16897,17033,19240.0,87,19245.0,47,19245.0,19250.0,19245.0,19250.0,92,92,19245,52,19250,48
2017-02-10 08:41:00,08:41:00,08:41:45,17039,17183,19245.0,52,19250.0,51,19245.0,19245.0,19240.0,19245.0,148,-34,19245,20,19250,63
2017-02-10 08:42:00,08:42:00,08:42:58,17203,17549,19245.0,41,19250.0,76,19245.0,19255.0,19240.0,19240.0,393,-111,19240,59,19245,57
2017-02-10 08:43:00,08:43:00,08:43:59,17556,17738,19240.0,64,19245.0,60,19245.0,19255.0,19245.0,19255.0,184,168,19250,47,19255,36
2017-02-10 08:44:00,08:44:00,08:44:51,17740,17812,19250.0,45,19255.0,36,19255.0,19255.0,19255.0,19255.0,31,31,19250,53,19255,32
2017-02-10 08:45:00,08:45:01,08:45:52,17818,18066,19250.0,53,19255.0,41,19255.0,19255.0,19245.0,19255.0,291,77,19250,47,19255,15
2017-02-10 08:46:00,08:46:00,08:46:53,18077,18199,19250.0,47,19255.0,45,19250.0,19255.0,19245.0,19255.0,109,-25,19250,17,19255,41
2017-02-10 08:47:00,08:47:02,08:47:53,18214,18313,19250.0,38,19255.0,37,19255.0,19260.0,19255.0,19260.0,62,60,19255,35,19260,48
2017-02-10 08:48:00,08:48:03,08:48:51,18316,18452,19255.0,34,19260.0,49,19260.0,19265.0,19260.0,19265.0,169,165,19260,51,19265,17
2017-02-10 08:49:00,08:49:01,08:49:57,18470,18666,19260.0,44,19265.0,33,19265.0,19265.0,19250.0,19250.0,164,-114,19250,35,19255,48
2017-02-10 08:50:00,08:50:02,08:50:54,18674,18831,19250.0,45,19255.0,39,19255.0,19260.0,19250.0,19250.0,160,-24,19250,14,19255,44
2017-02-10 08:51:00,08:51:03,08:51:53,18846,19042,19250.0,61,19255.0,44,19255.0,19260.0,19250.0,19255.0,226,68,19250,41,19255,25
2017-02-10 08:52:00,08:52:03,08:52:59,19058,19236,19250.0,43,19255.0,16,19255.0,19260.0,19250.0,19255.0,157,93,19255,53,19260,39
2017-02-10 08:53:00,08:53:03,08:53:49,19246,19448,19255.0,59,19260.0,4,19260.0,19265.0,19255.0,19260.0,246,-81,19255,45,19260,3
2017-02-10 08:54:00,08:54:05,08:54:57,19468,19649,19255.0,39,19260.0,44,19255.0,19260.0,19250.0,19255.0,142,-34,19255,10,19260,40
2017-02-10 08:55:00,08:55:00,08:55:57,19657,19856,19255.0,28,19260.0,43,19260.0,19265.0,19255.0,19260.0,131,11,19255,52,19260,10
2017-02-10 08:56:00,08:56:00,08:56:58,19864,20048,19255.0,49,19260.0,23,19260.0,19265.0,19255.0,19260.0,223,-41,19255,42,19260,39
2017-02-10 08:57:00,08:57:04,08:57:59,20054,20162,19255.0,47,19260.0,41,19260.0,19265.0,19255.0,19265.0,70,64,19260,48,19265,47
2017-02-10 08:58:00,08:58:05,08:58:56,20168,20262,19260.0,49,19265.0,37,19265.0,19270.0,19265.0,19270.0,51,49,19265,53,19270,83
2017-02-10 08:59:00,08:59:00,08:59:59,20266,20422,19265.0,54,19270.0,83,19270.0,19270.0,19265.0,19265.0,156,50,19255,37,19265,21
2017-02-10 09:00:00,09:00:00,09:00:30,20423,20550,19260.0,160,19265.0,16,19265.0,19265.0,19250.0,19255.0,236,-176,19255,54,19260,67
2017-02-10 09:01:00,09:01:15,09:01:54,20578,20741,19255.0,64,19260.0,76,19260.0,19270.0,19260.0,19265.0,202,158,19260,64,19265,8
2017-02-10 09:02:00,09:02:00,09:02:47,20754,20843,19260.0,65,19265.0,16,19265.0,19270.0,19265.0,19265.0,46,-6,19260,61,19265,40
2017-02-10 09:03:00,09:03:01,09:03:38,20855,21002,19260.0,58,19265.0,60,19260.0,19270.0,19255.0,19265.0,172,-86,19260,55,19265,23
2017-02-10 09:04:00,09:04:06,09:04:35,21022,21060,19260.0,61,19265.0,46,19260.0,19265.0,19260.0,19265.0,20,-18,19260,45,19265,50
2017-02-10 09:05:00,09:05:19,09:05:36,21114,21159,19260.0,80,19265.0,48,19260.0,19265.0,19260.0,19260.0,56,10,19260,74,19265,65
2017-02-10 09:06:00,09:06:01,09:06:58,21185,21303,19260.0,109,19265.0,34,19265.0,19270.0,19265.0,19270.0,124,84,19265,44,19270,78
2017-02-10 09:07:00,09:07:08,09:07:59,21312,21466,19265.0,44,19270.0,54,19270.0,19275.0,19265.0,19275.0,157,15,19270,59,19275,153
2017-02-10 09:08:00,09:08:01,09:08:29,21473,21508,19270.0,76,19275.0,155,19275.0,19275.0,19270.0,19275.0,46,44,19270,62,19275,120
2017-02-10 09:09:00,09:09:00,09:09:54,21518,21751,19270.0,68,19275.0,118,19275.0,19285.0,19270.0,19280.0,356,322,19280,70,19285,41
2017-02-10 09:10:00,09:10:00,09:10:57,21758,21988,19280.0,63,19285.0,54,19285.0,19290.0,19285.0,19285.0,334,182,19280,78,19285,8
2017-02-10 09:11:00,09:11:00,09:11:55,21993,22162,19280.0,78,19285.0,24,19285.0,19285.0,19285.0,19285.0,186,96,19280,97,19285,8
2017-02-10 09:12:00,09:12:00,09:12:59,22167,22693,19280.0,94,19285.0,11,19285.0,19305.0,19280.0,19290.0,792,411,19285,67,19290,23
2017-02-10 09:13:00,09:13:00,09:13:54,22697,22984,19285.0,68,19290.0,23,19285.0,19305.0,19285.0,19305.0,318,187,19300,68,19305,9
2017-02-10 09:14:00,09:14:00,09:14:52,22990,23438,19300.0,68,19305.0,9,19305.0,19320.0,19305.0,19315.0,763,372,19310,140,19315,6
2017-02-10 09:15:00,09:15:01,09:15:52,23455,23625,19310.0,138,19315.0,33,19315.0,19320.0,19310.0,19315.0,206,12,19315,4,19315,29
2017-02-10 09:16:00,09:16:00,09:16:53,23636,23762,19310.0,140,19315.0,31,19315.0,19320.0,19310.0,19315.0,185,-55,19310,128,19315,48
2017-02-10 09:17:00,09:17:00,09:17:55,23771,23914,19310.0,129,19315.0,51,19310.0,19320.0,19310.0,19315.0,216,-40,19315,67,19320,66
2017-02-10 09:18:00,09:18:00,09:18:58,23923,24154,19315.0,75,19320.0,70,19320.0,19330.0,19315.0,19330.0,225,217,19325,37,19330,47
2017-02-10 09:19:00,09:19:00,09:19:59,24161,24416,19325.0,49,19330.0,47,19330.0,19335.0,19325.0,19335.0,287,125,19330,149,19335,18
2017-02-10 09:20:00,09:20:03,09:20:59,24422,24769,19330.0,149,19335.0,12,19335.0,19340.0,19325.0,19325.0,588,6,19320,217,19325,40
2017-02-10 09:21:00,09:21:06,09:21:57,24773,24980,19320.0,192,19325.0,34,19325.0,19330.0,19325.0,19330.0,216,-17,19325,37,19330,94
2017-02-10 09:22:00,09:22:00,09:22:58,24988,25213,19325.0,59,19330.0,95,19330.0,19330.0,19325.0,19330.0,333,41,19325,53,19330,75
2017-02-10 09:23:00,09:23:01,09:23:59,25215,25476,19325.0,45,19330.0,75,19330.0,19330.0,19325.0,19325.0,276,-94,19325,56,19330,57
2017-02-10 09:24:00,09:24:02,09:24:58,25484,25769,19325.0,60,19330.0,51,19330.0,19335.0,19325.0,19335.0,393,93,19330,125,19335,62
2017-02-10 09:25:00,09:25:08,09:25:59,25776,25976,19330.0,130,19335.0,64,19335.0,19340.0,19330.0,19340.0,318,168,19335,140,19340,63
2017-02-10 09:26:00,09:26:07,09:26:59,25984,26221,19335.0,140,19340.0,84,19335.0,19340.0,19335.0,19340.0,336,-142,19335,49,19340,71
2017-02-10 09:27:00,09:27:09,09:27:55,26231,26361,19335.0,68,19340.0,67,19340.0,19340.0,19335.0,19335.0,133,-53,19335,2,19340,77
2017-02-10 09:28:00,09:28:00,09:28:49,26373,26563,19335.0,25,19340.0,84,19340.0,19340.0,19325.0,19330.0,266,-176,19325,44,19330,37
2017-02-10 09:29:00,09:29:01,09:29:52,26584,26718,19325.0,67,19330.0,41,19330.0,19335.0,19330.0,19335.0,132,62,19330,78,19335,42
2017-02-10 09:30:00,09:30:00,09:30:59,26729,26886,19330.0,74,19335.0,45,19335.0,19340.0,19335.0,19340.0,190,80,19335,51,19340,47
2017-02-10 09:31:00,09:31:00,09:31:50,26887,27057,19335.0,43,19340.0,48,19340.0,19340.0,19335.0,19340.0,148,51,19335,78,19340,75
2017-02-10 09:32:00,09:32:00,09:32:59,27062,27204,19335.0,80,19340.0,76,19340.0,19340.0,19335.0,19340.0,102,-54,19335,60,19340,60
2017-02-10 09:33:00,09:33:01,09:33:52,27209,27296,19335.0,73,19340.0,58,19340.0,19340.0,19335.0,19340.0,50,8,19335,69,19340,75
2017-02-10 09:34:00,09:34:00,09:34:53,27302,27474,19335.0,73,19340.0,75,19340.0,19340.0,19335.0,19340.0,226,-28,19335,118,19340,53
2017-02-10 09:35:00,09:35:01,09:35:58,27479,28092,19335.0,119,19340.0,56,19340.0,19365.0,19340.0,19355.0,981,316,19350,91,19355,34
2017-02-10 09:36:00,09:36:01,09:36:57,28102,28304,19350.0,122,19355.0,36,19355.0,19360.0,19350.0,19350.0,206,-54,19350,12,19350,5
2017-02-10 09:37:00,09:37:17,09:37:51,28320,28391,19350.0,32,19355.0,81,19355.0,19355.0,19355.0,19355.0,67,67,19355,17,19360,127
2017-02-10 09:38:00,09:38:08,09:38:59,28413,28615,19355.0,45,19360.0,129,19360.0,19365.0,19355.0,19360.0,270,124,19355,30,19360,71
2017-02-10 09:39:00,09:39:09,09:39:50,28635,28715,19355.0,19,19360.0,70,19355.0,19360.0,19355.0,19360.0,54,-14,19355,48,19360,65
2017-02-10 09:40:00,09:40:00,09:40:51,28720,28867,19355.0,47,19360.0,64,19360.0,19365.0,19355.0,19360.0,117,19,19355,36,19360,83
2017-02-10 09:41:00,09:41:00,09:41:58,28882,29045,19355.0,40,19360.0,86,19355.0,19360.0,19345.0,19345.0,171,-87,19345,52,19350,68
2017-02-10 09:42:00,09:42:01,09:42:56,29049,29159,19345.0,50,19350.0,68,19345.0,19350.0,19340.0,19340.0,76,-43,19340,49,19345,61
2017-02-10 09:43:00,09:43:02,09:43:59,29171,29375,19340.0,44,19345.0,62,19340.0,19345.0,19335.0,19345.0,146,-34,19340,93,19345,19
2017-02-10 09:44:00,09:44:01,09:44:54,29384,29543,19340.0,91,19345.0,32,19345.0,19350.0,19340.0,19340.0,181,3,19335,95,19340,11
2017-02-10 09:45:00,09:45:08,09:45:50,29561,29693,19335.0,74,19340.0,57,19340.0,19345.0,19340.0,19345.0,133,63,19340,72,19345,12
2017-02-10 09:46:00,09:46:01,09:46:59,29705,29845,19340.0,68,19345.0,45,19340.0,19340.0,19335.0,19340.0,119,9,19335,71,19340,86
2017-02-10 09:47:00,09:47:07,09:47:58,29853,30001,19335.0,65,19340.0,90,19340.0,19340.0,19330.0,19335.0,184,-86,19330,28,19335,67
2017-02-10 09:48:00,09:48:00,09:48:48,30008,30151,19330.0,41,19335.0,66,19335.0,19335.0,19330.0,19330.0,182,-146,19325,49,19330,64
2017-02-10 09:49:00,09:49:19,09:49:59,30167,30269,19325.0,64,19330.0,109,19330.0,19330.0,19325.0,19325.0,123,-31,19320,91,19325,32
2017-02-10 09:50:00,09:50:01,09:50:50,30273,30396,19320.0,91,19325.0,30,19325.0,19330.0,19320.0,19330.0,138,38,19325,50,19330,107
2017-02-10 09:51:00,09:51:00,09:51:54,30403,30636,19325.0,51,19330.0,110,19330.0,19335.0,19330.0,19330.0,319,183,19330,74,19335,33
2017-02-10 09:52:00,09:52:01,09:52:41,30650,30725,19330.0,77,19335.0,14,19335.0,19340.0,19335.0,19335.0,51,-15,19330,78,19335,44
2017-02-10 09:53:00,09:53:04,09:53:52,30737,30923,19330.0,81,19335.0,47,19330.0,19340.0,19330.0,19335.0,251,51,19330,40,19335,34
2017-02-10 09:54:00,09:54:02,09:54:24,30944,30978,19330.0,46,19335.0,79,19335.0,19335.0,19335.0,19335.0,38,38,19330,54,19335,20
2017-02-10 09:55:00,09:55:02,09:55:55,31015,31160,19330.0,96,19335.0,42,19330.0,19340.0,19330.0,19340.0,192,30,19335,28,19340,71
2017-02-10 09:56:00,09:56:11,09:56:25,31179,31251,19335.0,35,19340.0,65,19340.0,19340.0,19330.0,19335.0,120,36,19330,80,19335,40
2017-02-10 09:57:00,09:57:11,09:57:59,31265,31461,19330.0,72,19335.0,92,19335.0,19335.0,19325.0,19325.0,335,7,19320,87,19325,21
2017-02-10 09:58:00,09:58:09,09:58:48,31471,31679,19320.0,89,19325.0,40,19325.0,19330.0,19325.0,19330.0,283,75,19330,14,19335,64
2017-02-10 09:59:00,09:59:04,09:59:53,31697,31785,19330.0,61,19335.0,78,19330.0,19330.0,19325.0,19325.0,97,-91,19325,45,19330,72
2017-02-10 10:00:00,10:00:12,10:00:56,31811,31945,19325.0,33,19330.0,75,19325.0,19325.0,19320.0,19320.0,170,-68,19315,85,19320,14
2017-02-10 10:01:00,10:01:07,10:01:58,31955,32119,19315.0,90,19320.0,22,19320.0,19330.0,19320.0,19330.0,189,109,19325,68,19330,3
2017-02-10 10:02:00,10:02:00,10:02:52,32124,32278,19325.0,68,19330.0,3,19330.0,19335.0,19325.0,19325.0,160,-64,19320,65,19325,24
2017-02-10 10:03:00,10:03:03,10:03:54,32286,32366,19320.0,65,19325.0,24,19325.0,19325.0,19320.0,19325.0,49,9,19320,63,19325,31
2017-02-10 10:04:00,10:04:00,10:04:54,32370,32453,19320.0,63,19325.0,33,19320.0,19330.0,19320.0,19330.0,48,46,19325,36,19330,56
2017-02-10 10:05:00,10:05:04,10:05:55,32459,32558,19325.0,43,19330.0,56,19330.0,19335.0,19330.0,19335.0,69,69,19330,45,19335,55
2017-02-10 10:06:00,10:06:05,10:06:58,32566,32625,19330.0,43,19335.0,64,19335.0,19335.0,19335.0,19335.0,28,28,19330,77,19335,16
2017-02-10 10:07:00,10:07:08,10:07:58,32633,32684,19330.0,77,19335.0,24,19335.0,19335.0,19335.0,19335.0,24,24,19330,82,19335,15
2017-02-10 10:08:00,10:08:05,10:08:59,32685,32833,19330.0,83,19335.0,12,19330.0,19335.0,19330.0,19335.0,125,8,19325,44,19335,68
2017-02-10 10:09:00,10:09:09,10:09:59,32842,32947,19325.0,40,19330.0,44,19330.0,19330.0,19325.0,19325.0,127,-15,19320,34,19325,35
2017-02-10 10:10:00,10:10:00,10:10:51,32952,33086,19320.0,65,19325.0,34,19325.0,19335.0,19320.0,19330.0,135,127,19330,24,19335,73
2017-02-10 10:11:00,10:11:01,10:11:52,33095,33177,19330.0,26,19335.0,73,19330.0,19335.0,19330.0,19335.0,34,28,19330,34,19335,46
2017-02-10 10:12:00,10:12:01,10:12:37,33187,33259,19330.0,64,19335.0,24,19335.0,19340.0,19335.0,19335.0,85,-29,19335,39,19340,92
2017-02-10 10:13:00,10:13:13,10:13:13,33270,33287,19335.0,45,19340.0,100,19335.0,19335.0,19335.0,19335.0,41,-41,19330,31,19335,62
2017-02-10 10:14:00,10:14:07,10:14:56,33310,33401,19330.0,53,19335.0,84,19330.0,19335.0,19330.0,19335.0,78,58,19335,15,19335,23
2017-02-10 10:15:00,10:15:03,10:15:36,33407,33471,19335.0,23,19340.0,91,19335.0,19335.0,19330.0,19330.0,81,-61,19330,52,19335,24
2017-02-10 10:16:00,10:16:07,10:16:51,33492,33534,19330.0,54,19335.0,33,19335.0,19335.0,19330.0,19330.0,33,23,19330,50,19335,28
2017-02-10 10:17:00,10:17:05,10:17:45,33542,33649,19330.0,31,19335.0,46,19335.0,19335.0,19330.0,19330.0,122,-6,19330,8,19335,72
2017-02-10 10:18:00,10:18:21,10:18:26,33671,33693,19330.0,50,19335.0,53,19330.0,19335.0,19330.0,19335.0,55,-53,19330,23,19335,58
2017-02-10 10:19:00,10:19:00,10:19:00,0,0,0.0,0,0.0,0,19335.0,19335.0,19335.0,19335.0,0,0,0,0,0,0
2017-02-10 10:20:00,10:20:10,10:20:54,33728,33794,19330.0,33,19335.0,61,19330.0,19335.0,19330.0,19335.0,77,67,19335,10,19340,73
2017-02-10 10:21:00,10:21:02,10:21:02,33803,33803,19335.0,22,19340.0,72,19335.0,19335.0,19335.0,19335.0,1,-1,19335,17,19340,74
2017-02-10 10:22:00,10:22:01,10:22:34,33832,33959,19335.0,55,19340.0,52,19340.0,19340.0,19335.0,19335.0,184,-40,19330,64,19340,61
2017-02-10 10:23:00,10:23:39,10:23:39,33979,33979,19330.0,66,19335.0,35,19335.0,19335.0,19335.0,19335.0,1,1,19330,65,19335,34
2017-02-10 10:24:00,10:24:14,10:24:51,33988,34037,19330.0,63,19335.0,46,19335.0,19335.0,19330.0,19330.0,56,-12,19325,70,19330,25
2017-02-10 10:25:00,10:25:04,10:25:55,34047,34096,19325.0,76,19330.0,25,19330.0,19330.0,19325.0,19325.0,31,-17,19325,56,19330,51
2017-02-10 10:26:00,10:26:01,10:26:48,34105,34149,19325.0,58,19330.0,41,19330.0,19330.0,19325.0,19325.0,23,7,19325,73,19330,47
2017-02-10 10:27:00,10:27:03,10:27:03,34155,34155,19325.0,76,19330.0,50,19325.0,19325.0,19325.0,19325.0,2,-2,19325,74,19330,47
2017-02-10 10:28:00,10:28:03,10:28:34,34177,34345,19325.0,50,19330.0,81,19325.0,19335.0,19325.0,19330.0,307,69,19330,10,19335,55
2017-02-10 10:29:00,10:29:15,10:29:58,34379,34466,19330.0,71,19335.0,37,19330.0,19335.0,19330.0,19335.0,58,-54,19330,18,19335,76
2017-02-10 10:30:00,10:30:00,10:30:59,34472,34638,19330.0,32,19335.0,75,19330.0,19335.0,19325.0,19330.0,126,-14,19330,13,19335,60
2017-02-10 10:31:00,10:31:00,10:31:52,34645,34752,19330.0,56,19335.0,30,19335.0,19345.0,19335.0,19345.0,59,43,19340,48,19345,40
2017-02-10 10:32:00,10:32:05,10:32:40,34768,34927,19340.0,49,19345.0,41,19340.0,19345.0,19340.0,19340.0,247,-37,19340,30,19345,38
2017-02-10 10:33:00,10:33:07,10:33:50,34946,35022,19340.0,64,19345.0,22,19340.0,19345.0,19340.0,19345.0,51,9,19345,18,19350,56
2017-02-10 10:34:00,10:34:03,10:34:43,35036,35144,19345.0,28,19350.0,55,19350.0,19355.0,19350.0,19355.0,99,73,19350,16,19355,52
2017-02-10 10:35:00,10:35:13,10:35:35,35162,35183,19350.0,38,19355.0,39,19355.0,19355.0,19355.0,19355.0,12,12,19350,51,19355,27
2017-02-10 10:36:00,10:36:12,10:36:29,35199,35237,19350.0,53,19355.0,33,19350.0,19350.0,19350.0,19350.0,36,-16,19350,21,19355,77
2017-02-10 10:37:00,10:37:45,10:37:55,35270,35310,19350.0,51,19355.0,26,19355.0,19355.0,19355.0,19355.0,54,24,19355,4,19360,57
2017-02-10 10:38:00,10:38:17,10:38:35,35328,35351,19355.0,28,19360.0,62,19360.0,19360.0,19355.0,19355.0,15,-7,19350,27,19355,23
2017-02-10 10:39:00,10:39:29,10:39:45,35379,35404,19350.0,61,19355.0,22,19355.0,19355.0,19355.0,19355.0,25,5,19355,27,19360,49
2017-02-10 10:40:00,10:40:16,10:40:16,35416,35428,19355.0,35,19360.0,40,19360.0,19360.0,19360.0,19360.0,25,25,19355,37,19360,16
2017-02-10 10:41:00,10:41:26,10:41:26,35453,35454,19355.0,36,19360.0,39,19355.0,19355.0,19355.0,19355.0,2,-2,19355,35,19360,41
2017-02-10 10:42:00,10:42:03,10:42:57,35467,35477,19355.0,37,19360.0,45,19355.0,19360.0,19355.0,19360.0,4,0,19355,33,19360,55
2017-02-10 10:43:00,10:43:00,10:43:57,35481,35568,19355.0,34,19360.0,55,19355.0,19360.0,19355.0,19360.0,77,-41,19355,1,19360,50
2017-02-10 10:44:00,10:44:17,10:44:47,35575,35602,19355.0,27,19360.0,50,19355.0,19355.0,19355.0,19355.0,38,-38,19350,35,19355,21
2017-02-10 10:45:00,10:45:38,10:45:58,35633,35651,19350.0,55,19355.0,21,19350.0,19355.0,19350.0,19355.0,11,-9,19350,58,19355,19
2017-02-10 10:46:00,10:46:00,10:46:29,35654,35672,19350.0,58,19355.0,19,19355.0,19360.0,19355.0,19360.0,20,20,19355,23,19360,50
2017-02-10 10:47:00,10:47:45,10:47:45,35691,35691,19355.0,29,19360.0,50,19355.0,19355.0,19355.0,19355.0,6,-6,19355,23,19360,51
2017-02-10 10:48:00,10:48:00,10:48:00,0,0,0.0,0,0.0,0,19355.0,19355.0,19355.0,19355.0,0,0,0,0,0,0
2017-02-10 10:49:00,10:49:42,10:49:52,35711,35715,19355.0,30,19360.0,62,19360.0,19360.0,19360.0,19360.0,3,3,19350,43,19360,59
2017-02-10 10:50:00,10:50:02,10:50:27,35718,35740,19355.0,32,19360.0,62,19360.0,19360.0,19355.0,19355.0,45,-21,19350,67,19355,25
2017-02-10 10:51:00,10:51:15,10:51:57,35757,35843,19350.0,60,19355.0,41,19350.0,19350.0,19345.0,19345.0,103,-85,19345,14,19350,39
2017-02-10 10:52:00,10:52:19,10:52:21,35860,35880,19345.0,26,19350.0,69,19345.0,19345.0,19345.0,19345.0,27,-27,19340,56,19345,13
2017-02-10 10:53:00,10:53:14,10:53:59,35912,35946,19340.0,63,19345.0,53,19345.0,19345.0,19340.0,19345.0,49,29,19345,3,19350,60
2017-02-10 10:54:00,10:54:07,10:54:07,35953,35956,19345.0,18,19350.0,60,19345.0,19345.0,19345.0,19345.0,5,-5,19345,13,19350,59
2017-02-10 10:55:00,10:55:33,10:55:48,35977,36002,19345.0,19,19350.0,58,19345.0,19345.0,19345.0,19345.0,22,-14,19340,52,19345,3
2017-02-10 10:56:00,10:56:42,10:56:59,36021,36072,19340.0,51,19345.0,19,19345.0,19345.0,19340.0,19340.0,67,-17,19340,26,19345,28
2017-02-10 10:57:00,10:57:01,10:57:02,36079,36092,19340.0,53,19345.0,9,19345.0,19345.0,19345.0,19345.0,18,18,19345,17,19350,53
2017-02-10 10:58:00,10:58:30,10:58:30,36128,36128,19345.0,22,19350.0,47,19345.0,19345.0,19345.0,19345.0,1,-1,19345,17,19350,48
2017-02-10 10:59:00,10:59:51,10:59:51,36150,36150,19345.0,34,19350.0,45,19345.0,19345.0,19345.0,19345.0,1,-1,19345,27,19350,44
2017-02-10 11:00:00,11:00:01,11:00:59,36155,36232,19345.0,24,19350.0,48,19345.0,19350.0,19345.0,19345.0,67,-43,19340,50,19345,57
2017-02-10 11:01:00,11:01:09,11:01:59,36240,36270,19340.0,50,19345.0,104,19345.0,19345.0,19345.0,19345.0,13,13,19340,61,19345,78
2017-02-10 11:02:00,11:02:00,11:02:53,36271,36370,19340.0,54,19345.0,83,19345.0,19345.0,19345.0,19345.0,113,71,19345,3,19350,59
2017-02-10 11:03:00,11:03:00,11:03:58,36380,36447,19345.0,10,19350.0,60,19350.0,19350.0,19345.0,19345.0,25,9,19340,58,19345,7
2017-02-10 11:04:00,11:04:12,11:04:52,36459,36515,19340.0,63,19345.0,8,19345.0,19350.0,19345.0,19350.0,41,-3,19345,29,19350,55
2017-02-10 11:05:00,11:05:02,11:05:53,36520,36587,19345.0,30,19350.0,56,19350.0,19350.0,19350.0,19350.0,53,53,19345,39,19350,36
2017-02-10 11:06:00,11:06:03,11:06:04,36592,36594,19345.0,38,19350.0,41,19350.0,19350.0,19350.0,19350.0,3,3,19345,36,19350,38
2017-02-10 11:07:00,11:07:11,11:07:39,36607,36622,19345.0,35,19350.0,46,19350.0,19350.0,19350.0,19350.0,21,21,19345,36,19350,44
2017-02-10 11:08:00,11:08:00,11:08:00,0,0,0.0,0,0.0,0,19350.0,19350.0,19350.0,19350.0,0,0,0,0,0,0
2017-02-10 11:09:00,11:09:21,11:09:52,36647,36791,19345.0,36,19350.0,50,19345.0,19345.0,19335.0,19345.0,299,-271,19345,6,19350,55
2017-02-10 11:10:00,11:10:16,11:10:45,36805,36843,19345.0,13,19350.0,58,19345.0,19345.0,19345.0,19345.0,31,7,19340,60,19345,23
2017-02-10 11:11:00,11:11:00,11:11:58,36851,36917,19340.0,60,19345.0,35,19345.0,19345.0,19345.0,19345.0,61,7,19345,10,19350,60
2017-02-10 11:12:00,11:12:21,11:12:24,36924,36934,19345.0,21,19350.0,60,19345.0,19345.0,19345.0,19345.0,9,-3,19340,57,19350,59
2017-02-10 11:13:00,11:13:28,11:13:28,36971,36986,19340.0,59,19345.0,23,19345.0,19345.0,19345.0,19345.0,20,18,19345,19,19350,58
2017-02-10 11:14:00,11:14:23,11:14:58,37010,37041,19345.0,19,19350.0,55,19345.0,19345.0,19340.0,19345.0,27,-13,19340,58,19350,53
2017-02-10 11:15:00,11:15:00,11:15:00,0,0,0.0,0,0.0,0,19345.0,19345.0,19345.0,19345.0,0,0,0,0,0,0
2017-02-10 11:16:00,11:16:22,11:16:53,37073,37122,19340.0,52,19345.0,34,19340.0,19345.0,19340.0,19345.0,51,-23,19345,21,19350,55
2017-02-10 11:17:00,11:17:06,11:17:06,37129,37136,19345.0,12,19350.0,55,19350.0,19350.0,19350.0,19350.0,10,10,19345,36,19350,47
2017-02-10 11:18:00,11:18:54,11:18:56,37172,37190,19345.0,30,19350.0,56,19345.0,19345.0,19345.0,19345.0,31,-31,19340,43,19345,49
2017-02-10 11:19:00,11:19:01,11:19:01,37199,37211,19340.0,63,19345.0,25,19345.0,19345.0,19345.0,19345.0,23,23,19340,64,19345,27
2017-02-10 11:20:00,11:20:28,11:20:29,37232,37243,19340.0,62,19345.0,38,19340.0,19340.0,19340.0,19340.0,19,-19,19335,45,19340,15
2017-02-10 11:21:00,11:21:02,11:21:46,37263,37367,19335.0,36,19340.0,54,19335.0,19335.0,19330.0,19330.0,112,-100,19325,42,19330,24
2017-02-10 11:22:00,11:22:01,11:22:46,37386,37515,19325.0,32,19330.0,60,19325.0,19330.0,19320.0,19330.0,137,57,19325,66,19330,29
2017-02-10 11:23:00,11:23:04,11:23:47,37526,37626,19325.0,73,19330.0,40,19330.0,19330.0,19320.0,19320.0,178,-84,19320,55,19325,21
2017-02-10 11:24:00,11:24:02,11:24:36,37645,37686,19320.0,55,19325.0,30,19325.0,19325.0,19325.0,19325.0,30,6,19320,67,19325,18
2017-02-10 11:25:00,11:25:17,11:25:28,37717,37749,19325.0,63,19330.0,24,19325.0,19325.0,19325.0,19325.0,34,-34,19320,54,19325,27
2017-02-10 11:26:00,11:26:09,11:26:58,37768,37792,19320.0,47,19325.0,41,19325.0,19325.0,19325.0,19325.0,18,18,19320,52,19325,29
2017-02-10 11:27:00,11:27:04,11:27:04,37797,37797,19320.0,51,19325.0,36,19325.0,19325.0,19325.0,19325.0,1,1,19320,47,19325,33
2017-02-10 11:28:00,11:28:07,11:28:39,37823,37844,19320.0,55,19325.0,27,19325.0,19325.0,19325.0,19325.0,7,5,19325,39,19330,51
2017-02-10 11:29:00,11:29:00,11:29:00,0,0,0.0,0,0.0,0,19325.0,19325.0,19325.0,19325.0,0,0,0,0,0,0
2017-02-10 11:30:00,11:30:00,11:30:59,37869,38096,19325.0,44,19330.0,65,19330.0,19330.0,19320.0,19325.0,290,-70,19325,2,19330,66
2017-02-10 11:31:00,11:31:05,11:31:56,38109,38196,19325.0,9,19330.0,66,19325.0,19325.0,19325.0,19325.0,57,35,19320,52,19325,30
2017-02-10 11:32:00,11:32:01,11:32:43,38200,38306,19320.0,52,19325.0,34,19325.0,19335.0,19325.0,19335.0,68,46,19330,23,19335,68
2017-02-10 11:33:00,11:33:01,11:33:53,38329,38466,19330.0,28,19335.0,77,19330.0,19335.0,19330.0,19335.0,120,96,19335,18,19340,69
2017-02-10 11:34:00,11:34:02,11:34:57,38482,38633,19335.0,16,19340.0,69,19335.0,19335.0,19330.0,19330.0,151,31,19325,76,19330,1
2017-02-10 11:35:00,11:35:26,11:35:54,38662,38729,19325.0,94,19330.0,9,19330.0,19335.0,19325.0,19335.0,43,7,19330,68,19335,17
2017-02-10 11:36:00,11:36:08,11:36:55,38740,38859,19330.0,65,19335.0,39,19330.0,19330.0,19325.0,19325.0,118,-72,19320,68,19325,39
2017-02-10 11:37:00,11:37:00,11:37:45,38864,39010,19320.0,68,19325.0,49,19325.0,19335.0,19325.0,19335.0,140,132,19335,16,19340,86
2017-02-10 11:38:00,11:38:03,11:38:54,39036,39121,19335.0,28,19340.0,86,19335.0,19335.0,19325.0,19325.0,64,-30,19325,38,19330,23
2017-02-10 11:39:00,11:39:01,11:39:58,39131,39205,19325.0,8,19330.0,67,19330.0,19330.0,19320.0,19330.0,46,38,19325,41,19330,33
2017-02-10 11:40:00,11:40:10,11:40:31,39218,39284,19325.0,40,19330.0,70,19330.0,19330.0,19325.0,19330.0,117,89,19325,72,19330,8
2017-02-10 11:41:00,11:41:44,11:41:51,39336,39359,19325.0,27,19330.0,97,19325.0,19325.0,19320.0,19320.0,27,-27,19320,64,19325,35
2017-02-10 11:42:00,11:42:10,11:42:51,39371,39528,19320.0,65,19325.0,35,19325.0,19325.0,19320.0,19320.0,202,-90,19320,49,19325,44
2017-02-10 11:43:00,11:43:20,11:43:59,39545,39614,19320.0,49,19325.0,73,19320.0,19325.0,19320.0,19325.0,97,-67,19320,68,19325,21
2017-02-10 11:44:00,11:44:00,11:44:29,39619,39664,19320.0,73,19325.0,20,19325.0,19330.0,19320.0,19330.0,36,30,19325,48,19330,93
2017-02-10 11:45:00,11:45:02,11:45:05,39682,39725,19325.0,67,19330.0,88,19330.0,19330.0,19330.0,19330.0,97,97,19330,38,19335,66
2017-02-10 11:46:00,11:46:05,11:46:58,39748,39977,19330.0,76,19335.0,68,19330.0,19335.0,19330.0,19335.0,353,-7,19330,66,19335,11
2017-02-10 11:47:00,11:47:02,11:47:45,39985,40132,19330.0,67,19335.0,22,19330.0,19335.0,19330.0,19335.0,145,43,19330,37,19335,64
2017-02-10 11:48:00,11:48:06,11:48:58,40141,40236,19330.0,38,19335.0,60,19335.0,19335.0,19330.0,19330.0,100,5,19330,33,19335,69
2017-02-10 11:49:00,11:49:08,11:49:50,40243,40313,19330.0,39,19335.0,61,19330.0,19335.0,19330.0,19335.0,73,11,19335,52,19340,61
2017-02-10 11:50:00,11:50:17,11:50:27,40333,40356,19335.0,26,19340.0,108,19335.0,19335.0,19335.0,19335.0,40,8,19335,20,19340,108
2017-02-10 11:51:00,11:51:00,11:51:53,40376,40462,19335.0,20,19340.0,107,19335.0,19335.0,19330.0,19330.0,93,13,19325,40,19330,13
2017-02-10 11:52:00,11:52:03,11:52:58,40477,40665,19325.0,74,19330.0,30,19330.0,19335.0,19330.0,19330.0,211,-18,19325,70,19330,3
2017-02-10 11:53:00,11:53:06,11:53:50,40675,40818,19325.0,70,19330.0,16,19330.0,19335.0,19330.0,19330.0,145,27,19330,29,19335,63
2017-02-10 11:54:00,11:54:01,11:54:01,40825,40836,19330.0,23,19335.0,63,19330.0,19330.0,19330.0,19330.0,18,-18,19330,14,19335,62
2017-02-10 11:55:00,11:55:15,11:55:51,40855,40924,19330.0,66,19335.0,39,19335.0,19335.0,19335.0,19335.0,75,73,19330,66,19335,17
2017-02-10 11:56:00,11:56:24,11:56:56,40946,40996,19330.0,64,19335.0,55,19335.0,19335.0,19330.0,19330.0,50,4,19325,71,19335,75
2017-02-10 11:57:00,11:57:00,11:57:41,40999,41049,19330.0,11,19335.0,76,19330.0,19335.0,19330.0,19335.0,52,-30,19330,74,19335,11
2017-02-10 11:58:00,11:58:10,11:58:49,41061,41120,19330.0,67,19335.0,43,19330.0,19330.0,19330.0,19330.0,89,-29,19330,10,19335,70
2017-02-10 11:59:00,11:59:00,11:59:00,0,0,0.0,0,0.0,0,19330.0,19330.0,19330.0,19330.0,0,0,0,0,0,0
2017-02-10 12:00:00,12:00:21,12:00:58,41167,41236,19330.0,67,19335.0,42,19330.0,19330.0,19320.0,19320.0,74,-70,19320,41,19325,65
2017-02-10 12:01:00,12:01:20,12:01:20,41259,41266,19320.0,85,19325.0,47,19325.0,19325.0,19325.0,19325.0,14,14,19320,84,19325,39
2017-02-10 12:02:00,12:02:38,12:02:57,41285,41404,19320.0,91,19325.0,25,19325.0,19330.0,19325.0,19330.0,150,116,19330,7,19330,1
2017-02-10 12:03:00,12:03:16,12:03:35,41420,41441,19330.0,11,19335.0,66,19330.0,19330.0,19330.0,19330.0,26,-18,19325,79,19335,70
2017-02-10 12:04:00,12:04:08,12:04:08,41466,41466,19330.0,34,19335.0,69,19330.0,19330.0,19330.0,19330.0,1,-1,19330,33,19335,70
2017-02-10 12:05:00,12:05:11,12:05:55,41493,41548,19330.0,8,19335.0,75,19330.0,19330.0,19325.0,19325.0,37,7,19325,49,19330,69
2017-02-10 12:06:00,12:06:10,12:06:52,41557,41711,19325.0,52,19330.0,71,19330.0,19335.0,19325.0,19335.0,190,112,19330,39,19335,35
2017-02-10 12:07:00,12:07:11,12:07:41,41722,41786,19330.0,19,19335.0,64,19335.0,19335.0,19330.0,19330.0,101,29,19325,70,19330,10
2017-02-10 12:08:00,12:08:10,12:08:46,41799,41913,19325.0,70,19330.0,19,19330.0,19335.0,19330.0,19335.0,185,169,19335,6,19340,102
2017-02-10 12:09:00,12:09:00,12:09:59,41927,42120,19335.0,19,19340.0,102,19340.0,19340.0,19335.0,19340.0,261,153,19340,1,19340,25
2017-02-10 12:10:00,12:10:00,12:10:57,42122,42229,19340.0,1,19345.0,73,19340.0,19345.0,19340.0,19345.0,108,-70,19340,45,19345,86
2017-02-10 12:11:00,12:11:06,12:11:54,42234,42368,19340.0,44,19345.0,89,19340.0,19350.0,19340.0,19350.0,221,115,19345,49,19350,28
2017-02-10 12:12:00,12:12:00,12:12:49,42383,42466,19345.0,47,19350.0,35,19350.0,19350.0,19350.0,19350.0,42,16,19345,59,19350,35
2017-02-10 12:13:00,12:13:14,12:13:41,42495,42603,19345.0,48,19350.0,51,19350.0,19355.0,19350.0,19350.0,158,36,19345,50,19350,33
2017-02-10 12:14:00,12:14:04,12:14:59,42620,42758,19345.0,54,19350.0,64,19350.0,19355.0,19350.0,19350.0,129,59,19350,68,19355,42
2017-02-10 12:15:00,12:15:01,12:15:41,42762,42919,19350.0,68,19355.0,41,19355.0,19355.0,19350.0,19350.0,224,-86,19345,113,19350,23
2017-02-10 12:16:00,12:16:01,12:16:24,42937,43006,19345.0,92,19350.0,77,19350.0,19355.0,19350.0,19355.0,121,111,19350,89,19355,18
2017-02-10 12:17:00,12:17:07,12:17:43,43022,43167,19350.0,66,19355.0,64,19350.0,19350.0,19345.0,19345.0,168,-80,19345,64,19350,67
2017-02-10 12:18:00,12:18:00,12:18:00,0,0,0.0,0,0.0,0,19345.0,19345.0,19345.0,19345.0,0,0,0,0,0,0
2017-02-10 12:19:00,12:19:20,12:19:47,43193,43223,19345.0,74,19350.0,70,19350.0,19350.0,19350.0,19350.0,27,27,19345,77,19350,62
2017-02-10 12:20:00,12:20:00,12:20:00,0,0,0.0,0,0.0,0,19350.0,19350.0,19350.0,19350.0,0,0,0,0,0,0
2017-02-10 12:21:00,12:21:53,12:21:57,43288,43309,19345.0,81,19350.0,69,19350.0,19350.0,19345.0,19345.0,29,-21,19345,57,19350,69
2017-02-10 12:22:00,12:22:58,12:22:58,43336,43362,19345.0,61,19350.0,71,19345.0,19345.0,19345.0,19345.0,59,-59,19345,34,19350,67
2017-02-10 12:23:00,12:23:15,12:23:52,43384,43467,19345.0,48,19350.0,65,19345.0,19345.0,19345.0,19345.0,91,19,19345,60,19350,71
2017-02-10 12:24:00,12:24:00,12:24:00,0,0,0.0,0,0.0,0,19345.0,19345.0,19345.0,19345.0,0,0,0,0,0,0
2017-02-10 12:25:00,12:25:00,12:25:00,0,0,0.0,0,0.0,0,19345.0,19345.0,19345.0,19345.0,0,0,0,0,0,0
2017-02-10 12:26:00,12:26:21,12:26:41,43532,43586,19345.0,51,19350.0,71,19345.0,19345.0,19340.0,19340.0,64,-44,19340,98,19345,32
2017-02-10 12:27:00,12:27:04,12:27:40,43598,43691,19340.0,98,19345.0,39,19340.0,19340.0,19335.0,19335.0,134,-134,19335,19,19340,82
2017-02-10 12:28:00,12:28:02,12:28:50,43708,43804,19335.0,50,19340.0,74,19335.0,19340.0,19335.0,19340.0,163,141,19335,45,19340,25
2017-02-10 12:29:00,12:29:00,12:29:59,43815,43842,19335.0,39,19340.0,71,19335.0,19335.0,19335.0,19335.0,6,-6,19335,24,19340,71
2017-02-10 12:30:00,12:30:00,12:30:00,0,0,0.0,0,0.0,0,19335.0,19335.0,19335.0,19335.0,0,0,0,0,0,0
2017-02-10 12:31:00,12:31:03,12:31:51,43863,43961,19335.0,22,19340.0,78,19335.0,19340.0,19335.0,19335.0,94,28,19330,84,19335,7
2017-02-10 12:32:00,12:32:14,12:32:14,43982,43987,19330.0,77,19335.0,24,19335.0,19335.0,19335.0,19335.0,9,9,19335,29,19340,87
2017-02-10 12:33:00,12:33:01,12:33:45,44005,44051,19335.0,26,19340.0,95,19335.0,19340.0,19335.0,19340.0,35,-13,19335,48,19340,66
2017-02-10 12:34:00,12:34:53,12:34:53,44066,44072,19335.0,44,19340.0,73,19340.0,19340.0,19340.0,19340.0,25,25,19335,45,19340,44
2017-02-10 12:35:00,12:35:01,12:35:17,44082,44172,19335.0,49,19340.0,57,19340.0,19340.0,19335.0,19340.0,119,75,19335,31,19340,78
2017-02-10 12:36:00,12:36:05,12:36:44,44191,44294,19335.0,35,19340.0,74,19340.0,19340.0,19335.0,19335.0,144,-10,19335,17,19340,78
2017-02-10 12:37:00,12:37:00,12:37:36,44304,44332,19335.0,39,19340.0,78,19335.0,19335.0,19335.0,19335.0,25,-25,19335,7,19340,78
2017-02-10 12:38:00,12:38:27,12:38:36,44356,44360,19330.0,85,19335.0,45,19330.0,19330.0,19330.0,19330.0,4,-4,19330,81,19335,44
2017-02-10 12:39:00,12:39:00,12:39:59,44368,44522,19330.0,79,19335.0,49,19330.0,19335.0,19325.0,19325.0,221,-165,19325,59,19330,49
2017-02-10 12:40:00,12:40:00,12:40:15,44523,44564,19325.0,66,19330.0,48,19325.0,19325.0,19320.0,19325.0,50,-30,19320,82,19325,8
2017-02-10 12:41:00,12:41:01,12:41:49,44603,44706,19320.0,85,19325.0,23,19325.0,19325.0,19320.0,19325.0,108,-18,19325,42,19330,80
2017-02-10 12:42:00,12:42:31,12:42:57,44724,44816,19325.0,47,19330.0,83,19325.0,19325.0,19325.0,19325.0,100,-78,19325,23,19330,85
2017-02-10 12:43:00,12:43:23,12:43:54,44838,44953,19325.0,103,19330.0,41,19330.0,19335.0,19325.0,19325.0,142,-8,19320,79,19325,1
2017-02-10 12:44:00,12:44:00,12:44:38,44960,44989,19320.0,79,19325.0,18,19320.0,19325.0,19320.0,19325.0,10,4,19320,73,19325,43
2017-02-10 12:45:00,12:45:00,12:45:27,45001,45038,19320.0,73,19325.0,41,19325.0,19330.0,19325.0,19330.0,40,40,19325,45,19330,63
2017-02-10 12:46:00,12:46:00,12:46:16,45047,45085,19325.0,47,19330.0,61,19330.0,19330.0,19325.0,19330.0,64,50,19325,69,19330,18
2017-02-10 12:47:00,12:47:11,12:47:46,45102,45271,19325.0,76,19330.0,49,19330.0,19340.0,19330.0,19335.0,199,55,19335,4,19340,67
2017-02-10 12:48:00,12:48:14,12:48:41,45295,45392,19335.0,46,19340.0,64,19340.0,19345.0,19340.0,19340.0,92,7,19340,12,19345,102
2017-02-10 12:49:00,12:49:00,12:49:54,45408,45474,19340.0,14,19345.0,102,19340.0,19340.0,19340.0,19340.0,63,-38,19335,55,19340,52
2017-02-10 12:50:00,12:50:12,12:50:37,45487,45547,19335.0,43,19340.0,72,19335.0,19335.0,19335.0,19335.0,70,-31,19335,9,19340,74
2017-02-10 12:51:00,12:51:27,12:51:27,45566,45567,19335.0,48,19340.0,73,19340.0,19340.0,19340.0,19340.0,2,2,19335,49,19340,71
2017-02-10 12:52:00,12:52:26,12:52:56,45593,45649,19335.0,46,19340.0,76,19340.0,19340.0,19340.0,19340.0,50,50,19335,45,19345,99
2017-02-10 12:53:00,12:53:25,12:53:50,45662,45676,19335.0,43,19340.0,59,19340.0,19340.0,19340.0,19340.0,6,6,19335,42,19340,57
2017-02-10 12:54:00,12:54:34,12:54:50,45697,45737,19335.0,41,19340.0,73,19340.0,19340.0,19335.0,19340.0,46,-40,19335,48,19340,75
2017-02-10 12:55:00,12:55:00,12:55:54,45740,45811,19335.0,48,19340.0,75,19340.0,19340.0,19335.0,19340.0,116,108,19335,50,19340,71
2017-02-10 12:56:00,12:56:53,12:56:53,45830,45830,19335.0,64,19340.0,77,19340.0,19340.0,19340.0,19340.0,2,2,19335,65,19340,75
2017-02-10 12:57:00,12:57:31,12:57:56,45849,45891,19335.0,71,19340.0,64,19340.0,19345.0,19340.0,19340.0,43,37,19340,51,19345,84
2017-02-10 12:58:00,12:58:22,12:58:56,45902,45970,19340.0,57,19345.0,84,19345.0,19345.0,19345.0,19345.0,75,75,19340,41,19345,29
2017-02-10 12:59:00,12:59:02,12:59:52,45974,46015,19340.0,72,19345.0,31,19340.0,19345.0,19340.0,19345.0,38,14,19340,77,19345,13
2017-02-10 13:00:00,13:00:23,13:00:52,46030,46193,19340.0,75,19345.0,53,19345.0,19350.0,19345.0,19345.0,222,106,19340,88,19345,5
2017-02-10 13:01:00,13:01:01,13:01:43,46207,46264,19340.0,86,19345.0,9,19345.0,19345.0,19340.0,19345.0,38,-14,19340,80,19345,43
2017-02-10 13:02:00,13:02:48,13:02:59,46278,46325,19340.0,87,19345.0,48,19345.0,19345.0,19340.0,19340.0,56,-54,19340,18,19345,86
2017-02-10 13:03:00,13:03:00,13:03:00,0,0,0.0,0,0.0,0,19340.0,19340.0,19340.0,19340.0,0,0,0,0,0,0
2017-02-10 13:04:00,13:04:18,13:04:55,46371,46519,19340.0,108,19345.0,49,19340.0,19355.0,19340.0,19350.0,209,139,19350,37,19355,51
2017-02-10 13:05:00,13:05:04,13:05:59,46531,46657,19350.0,37,19355.0,54,19350.0,19350.0,19350.0,19350.0,116,-18,19350,27,19350,2
2017-02-10 13:06:00,13:06:01,13:06:40,46661,46763,19350.0,13,19355.0,84,19350.0,19355.0,19345.0,19345.0,108,-92,19340,86,19350,75
2017-02-10 13:07:00,13:07:08,13:07:47,46781,46814,19340.0,87,19345.0,45,19340.0,19345.0,19340.0,19345.0,5,-3,19340,87,19345,56
2017-02-10 13:08:00,13:08:11,13:08:58,46818,46894,19340.0,87,19345.0,58,19340.0,19345.0,19335.0,19335.0,69,-53,19335,46,19340,90
2017-02-10 13:09:00,13:09:03,13:09:56,46903,46963,19335.0,45,19340.0,93,19335.0,19340.0,19330.0,19330.0,33,-31,19330,89,19335,36
2017-02-10 13:10:00,13:10:10,13:10:58,46973,47119,19330.0,89,19335.0,28,19335.0,19335.0,19335.0,19335.0,139,-33,19330,68,19335,76
2017-02-10 13:11:00,13:11:01,13:11:37,47121,47205,19330.0,81,19335.0,76,19330.0,19335.0,19330.0,19330.0,89,-57,19330,28,19335,106
2017-02-10 13:12:00,13:12:14,13:12:14,47232,47234,19330.0,115,19335.0,60,19335.0,19335.0,19335.0,19335.0,3,3,19330,116,19335,55
2017-02-10 13:13:00,13:13:06,13:13:56,47266,47348,19330.0,87,19335.0,97,19330.0,19335.0,19330.0,19335.0,92,60,19335,33,19340,97
2017-02-10 13:14:00,13:14:07,13:14:58,47364,47429,19335.0,50,19340.0,80,19335.0,19335.0,19330.0,19330.0,48,-20,19330,102,19335,39
2017-02-10 13:15:00,13:15:03,13:15:57,47435,47495,19330.0,101,19335.0,46,19330.0,19335.0,19330.0,19335.0,64,-4,19335,32,19340,91
2017-02-10 13:16:00,13:16:12,13:16:59,47511,47569,19335.0,51,19340.0,92,19340.0,19340.0,19335.0,19335.0,55,-51,19330,88,19335,16
2017-02-10 13:17:00,13:17:01,13:17:55,47570,47654,19335.0,5,19340.0,98,19335.0,19335.0,19330.0,19330.0,101,-97,19330,75,19335,33
2017-02-10 13:18:00,13:18:01,13:18:50,47659,47824,19330.0,78,19335.0,33,19335.0,19340.0,19335.0,19340.0,222,136,19340,2,19345,92
2017-02-10 13:19:00,13:19:00,13:19:55,47832,48016,19340.0,25,19345.0,94,19340.0,19345.0,19335.0,19335.0,185,-61,19335,75,19340,47
2017-02-10 13:20:00,13:20:00,13:20:47,48018,48128,19335.0,75,19340.0,44,19335.0,19335.0,19330.0,19335.0,110,-26,19330,76,19340,76
2017-02-10 13:21:00,13:21:01,13:21:59,48142,48261,19335.0,16,19340.0,76,19335.0,19335.0,19330.0,19330.0,88,-50,19330,59,19335,48
2017-02-10 13:22:00,13:22:02,13:22:53,48264,48307,19330.0,49,19335.0,49,19330.0,19330.0,19330.0,19330.0,15,-15,19330,94,19335,56
2017-02-10 13:23:00,13:23:00,13:23:54,48309,48370,19330.0,94,19335.0,53,19330.0,19335.0,19330.0,19335.0,57,9,19335,35,19340,104
2017-02-10 13:24:00,13:24:04,13:24:57,48378,48556,19335.0,41,19340.0,104,19335.0,19340.0,19335.0,19340.0,236,20,19340,73,19345,48
2017-02-10 13:25:00,13:25:00,13:25:58,48561,48710,19340.0,68,19345.0,48,19340.0,19350.0,19340.0,19345.0,158,10,19345,87,19350,88
2017-02-10 13:26:00,13:26:08,13:26:56,48715,48837,19345.0,88,19350.0,88,19345.0,19350.0,19340.0,19345.0,130,62,19345,29,19350,94
2017-02-10 13:27:00,13:27:01,13:27:59,48840,48915,19340.0,83,19345.0,6,19345.0,19345.0,19340.0,19340.0,31,-17,19340,74,19345,47
2017-02-10 13:28:00,13:28:05,13:28:55,48919,48998,19340.0,76,19345.0,47,19345.0,19345.0,19340.0,19345.0,71,47,19340,86,19350,96
2017-02-10 13:29:00,13:29:00,13:29:51,49004,49116,19340.0,86,19345.0,7,19340.0,19345.0,19340.0,19340.0,87,29,19340,88,19345,1
2017-02-10 13:30:00,13:30:01,13:30:57,49134,49215,19340.0,95,19345.0,23,19340.0,19350.0,19340.0,19345.0,41,7,19345,60,19350,85
2017-02-10 13:31:00,13:31:00,13:31:58,49222,49430,19345.0,32,19350.0,97,19350.0,19355.0,19350.0,19355.0,304,266,19350,59,19355,23
2017-02-10 13:32:00,13:32:02,13:32:56,49435,49637,19350.0,57,19355.0,67,19350.0,19360.0,19350.0,19360.0,241,146,19360,21,19365,108
2017-02-10 13:33:00,13:33:00,13:33:59,49646,49849,19360.0,41,19365.0,120,19360.0,19370.0,19360.0,19370.0,312,284,19365,126,19370,14
2017-02-10 13:34:00,13:34:00,13:34:52,49852,50139,19365.0,126,19370.0,14,19370.0,19375.0,19365.0,19375.0,498,406,19370,121,19375,29
2017-02-10 13:35:00,13:35:00,13:35:59,50146,50370,19370.0,126,19375.0,46,19370.0,19375.0,19370.0,19375.0,213,117,19370,126,19375,11
2017-02-10 13:36:00,13:36:04,13:36:55,50380,50578,19370.0,125,19375.0,55,19370.0,19380.0,19370.0,19370.0,169,63,19370,134,19375,5
2017-02-10 13:37:00,13:37:00,13:37:59,50581,50703,19370.0,134,19375.0,5,19375.0,19385.0,19370.0,19385.0,145,95,19380,53,19385,101
2017-02-10 13:38:00,13:38:00,13:38:59,50707,50939,19380.0,59,19385.0,101,19380.0,19380.0,19370.0,19375.0,315,-127,19370,125,19375,37
2017-02-10 13:39:00,13:39:02,13:39:59,50941,51123,19370.0,118,19375.0,37,19375.0,19375.0,19365.0,19370.0,206,-98,19365,55,19370,79
2017-02-10 13:40:00,13:40:09,13:40:59,51129,51329,19365.0,52,19370.0,104,19365.0,19370.0,19365.0,19370.0,262,96,19370,101,19375,50
2017-02-10 13:41:00,13:41:03,13:41:57,51334,51508,19370.0,101,19375.0,59,19370.0,19375.0,19370.0,19375.0,311,-41,19370,87,19375,114
2017-02-10 13:42:00,13:42:00,13:42:59,51510,51672,19370.0,88,19375.0,114,19370.0,19375.0,19365.0,19365.0,159,25,19365,123,19370,11
2017-02-10 13:43:00,13:43:04,13:43:56,51679,51823,19365.0,123,19370.0,21,19365.0,19375.0,19365.0,19370.0,138,-16,19365,63,19370,96
2017-02-10 13:44:00,13:44:05,13:44:59,51828,51969,19365.0,62,19370.0,102,19365.0,19370.0,19365.0,19370.0,103,29,19365,131,19370,5
2017-02-10 13:45:00,13:45:03,13:45:58,51975,52094,19365.0,144,19375.0,129,19370.0,19375.0,19370.0,19375.0,82,30,19370,66,19375,81
2017-02-10 13:46:00,13:46:04,13:46:59,52100,52204,19370.0,71,19375.0,82,19370.0,19375.0,19370.0,19375.0,84,46,19370,121,19375,55
2017-02-10 13:47:00,13:47:01,13:47:59,52207,52341,19370.0,120,19375.0,57,19375.0,19375.0,19370.0,19375.0,117,69,19370,147,19375,66
2017-02-10 13:48:00,13:48:00,13:48:59,52343,52515,19370.0,149,19375.0,66,19370.0,19380.0,19370.0,19375.0,241,81,19370,114,19375,35
2017-02-10 13:49:00,13:49:00,13:49:59,52516,52712,19370.0,115,19375.0,39,19370.0,19375.0,19370.0,19375.0,181,-34,19375,7,19380,120
2017-02-10 13:50:00,13:50:01,13:50:59,52718,52903,19375.0,6,19380.0,120,19375.0,19380.0,19370.0,19380.0,169,95,19375,52,19380,112
2017-02-10 13:51:00,13:51:02,13:51:59,52910,53099,19375.0,40,19380.0,120,19375.0,19380.0,19375.0,19380.0,212,46,19380,11,19385,156
2017-02-10 13:52:00,13:52:00,13:52:58,53102,53493,19380.0,11,19385.0,156,19380.0,19385.0,19380.0,19385.0,753,309,19380,141,19390,131
2017-02-10 13:53:00,13:53:04,13:53:59,53503,53709,19385.0,23,19390.0,129,19385.0,19385.0,19380.0,19385.0,292,78,19380,190,19385,66
2017-02-10 13:54:00,13:54:00,13:54:58,53712,53908,19380.0,190,19385.0,66,19385.0,19385.0,19370.0,19370.0,301,-233,19370,95,19375,75
2017-02-10 13:55:00,13:55:00,13:55:59,53910,54206,19370.0,95,19375.0,73,19370.0,19380.0,19370.0,19375.0,449,405,19375,77,19380,88
2017-02-10 13:56:00,13:56:00,13:56:59,54208,54450,19375.0,84,19380.0,88,19375.0,19380.0,19375.0,19380.0,270,180,19380,40,19380,40
2017-02-10 13:57:00,13:57:00,13:57:57,54452,54620,19380.0,40,19385.0,142,19380.0,19380.0,19375.0,19375.0,192,52,19375,80,19380,116
2017-02-10 13:58:00,13:58:00,13:58:59,54626,54933,19375.0,92,19380.0,116,19375.0,19385.0,19375.0,19385.0,336,78,19380,80,19385,163
2017-02-10 13:59:00,13:59:00,13:59:59,54936,55616,19380.0,80,19385.0,163,19385.0,19385.0,19365.0,19375.0,1506,-662,19370,17,19375,161
2017-02-10 14:00:00,14:00:00,14:00:59,55617,56507,19370.0,20,19375.0,166,19375.0,19390.0,19365.0,19385.0,2008,186,19385,6,19390,161
2017-02-10 14:01:00,14:01:00,14:01:59,56510,56821,19385.0,6,19390.0,161,19385.0,19390.0,19380.0,19380.0,411,179,19380,169,19385,84
2017-02-10 14:02:00,14:02:00,14:02:57,56826,57094,19380.0,170,19385.0,86,19385.0,19385.0,19375.0,19380.0,386,-34,19380,8,19385,157
2017-02-10 14:03:00,14:03:00,14:03:59,57103,57465,19380.0,45,19385.0,158,19380.0,19385.0,19375.0,19380.0,641,219,19380,119,19385,86
2017-02-10 14:04:00,14:04:00,14:04:58,57469,57671,19380.0,120,19385.0,86,19380.0,19390.0,19380.0,19385.0,209,-51,19380,171,19385,8
2017-02-10 14:05:00,14:05:02,14:05:50,57680,57870,19380.0,171,19385.0,31,19380.0,19395.0,19380.0,19390.0,422,144,19390,141,19395,74
2017-02-10 14:06:00,14:06:00,14:06:59,57876,58257,19390.0,138,19395.0,100,19390.0,19405.0,19390.0,19405.0,758,438,19400,46,19405,145
2017-02-10 14:07:00,14:07:00,14:07:47,58258,58453,19400.0,47,19405.0,153,19400.0,19405.0,19390.0,19395.0,399,-23,19395,33,19400,135
2017-02-10 14:08:00,14:08:00,14:08:58,58476,58784,19395.0,101,19400.0,127,19400.0,19405.0,19395.0,19405.0,675,73,19405,61,19410,181
2017-02-10 14:09:00,14:09:00,14:09:58,58789,59040,19405.0,55,19410.0,174,19405.0,19410.0,19400.0,19405.0,547,383,19405,77,19410,70
