,ST,ET,sidx,eidx,bB,bBS,bA,bAS,O,H,L,C,V,OF,eB,eBS,eA,eAS
2017-02-24 08:00:00,08:00:00,08:00:57,2260,2998,19235.0,5,19240.0,80,19235.0,19240.0,19210.0,19220.0,1093,-178,19220,46,19225,52
2017-02-24 08:01:00,08:01:02,08:01:54,3008,3371,19220.0,51,19225.0,52,19220.0,19225.0,19215.0,19225.0,627,-80,19225,40,19230,88
2017-02-24 08:02:00,08:02:00,08:02:45,3380,3641,19225.0,52,19230.0,104,19225.0,19235.0,19215.0,19215.0,352,-66,19215,30,19220,45
2017-02-24 08:03:00,08:03:00,08:03:55,3664,4230,19215.0,43,19220.0,50,19220.0,19240.0,19215.0,19240.0,867,601,19235,112,19240,49
2017-02-24 08:04:00,08:04:00,08:04:53,4237,4487,19235.0,112,19240.0,48,19235.0,19245.0,19235.0,19245.0,314,204,19240,59,19250,65
2017-02-24 08:05:00,08:05:02,08:05:59,4506,4724,19240.0,62,19245.0,32,19245.0,19245.0,19235.0,19235.0,273,-163,19235,38,19240,50
2017-02-24 08:06:00,08:06:00,08:06:51,4726,4780,19235.0,38,19240.0,48,19235.0,19240.0,19235.0,19235.0,27,-25,19235,28,19240,53
2017-02-24 08:07:00,08:07:00,08:07:58,4789,5070,19235.0,33,19240.0,47,19235.0,19245.0,19235.0,19240.0,370,-34,19235,48,19240,13
2017-02-24 08:08:00,08:08:01,08:08:48,5074,5227,19235.0,54,19240.0,13,19240.0,19245.0,19240.0,19240.0,315,65,19240,41,19245,77
2017-02-24 08:09:00,08:09:02,08:09:57,5240,5445,19240.0,49,19245.0,74,19245.0,19245.0,19235.0,19235.0,273,-69,19235,29,19240,48
2017-02-24 08:10:00,08:10:10,08:10:59,5467,5653,19235.0,34,19240.0,57,19235.0,19235.0,19225.0,19225.0,352,-186,19220,63,19225,6
2017-02-24 08:11:00,08:11:00,08:11:54,5655,5791,19220.0,62,19225.0,6,19225.0,19225.0,19220.0,19220.0,140,-8,19220,63,19225,57
2017-02-24 08:12:00,08:12:01,08:12:57,5795,6029,19220.0,63,19225.0,59,19220.0,19225.0,19215.0,19225.0,246,-74,19225,11,19230,69
2017-02-24 08:13:00,08:13:02,08:13:52,6031,6210,19225.0,11,19230.0,63,19225.0,19235.0,19225.0,19230.0,198,62,19230,53,19235,23
2017-02-24 08:14:00,08:14:06,08:14:57,6230,6378,19230.0,49,19235.0,37,19230.0,19235.0,19225.0,19235.0,157,55,19230,23,19235,41
2017-02-24 08:15:00,08:15:00,08:15:56,6384,6577,19230.0,23,19235.0,46,19230.0,19235.0,19230.0,19230.0,178,80,19230,41,19235,32
2017-02-24 08:16:00,08:16:06,08:16:47,6585,6674,19230.0,42,19235.0,31,19230.0,19230.0,19225.0,19225.0,61,-53,19225,31,19230,35
2017-02-24 08:17:00,08:17:05,08:17:41,6693,6853,19225.0,61,19230.0,33,19230.0,19230.0,19220.0,19220.0,210,-168,19220,20,19225,45
2017-02-24 08:18:00,08:18:24,08:18:59,6895,6942,19220.0,42,19225.0,46,19220.0,19220.0,19220.0,19220.0,22,-22,19220,8,19225,83
2017-02-24 08:19:00,08:19:02,08:19:59,6948,7005,19220.0,23,19225.0,83,19220.0,19225.0,19220.0,19220.0,25,-17,19220,24,19225,83
2017-02-24 08:20:00,08:20:02,08:20:56,7011,7244,19220.0,33,19225.0,78,19220.0,19220.0,19215.0,19215.0,235,-21,19215,45,19220,71
2017-02-24 08:21:00,08:21:02,08:21:56,7255,7455,19215.0,52,19220.0,63,19220.0,19225.0,19215.0,19225.0,209,73,19225,2,19230,49
2017-02-24 08:22:00,08:22:01,08:22:59,7467,7696,19220.0,59,19225.0,24,19225.0,19235.0,19225.0,19235.0,253,71,19230,46,19235,29
2017-02-24 08:23:00,08:23:00,08:23:51,7700,7813,19230.0,46,19235.0,28,19235.0,19235.0,19230.0,19235.0,112,74,19235,24,19240,78
2017-02-24 08:24:00,08:24:14,08:24:55,7828,7918,19235.0,42,19240.0,80,19235.0,19240.0,19235.0,19235.0,83,51,19235,33,19240,40
2017-02-24 08:25:00,08:25:04,08:25:50,7930,8024,19235.0,38,19240.0,49,19235.0,19240.0,19235.0,19240.0,67,-11,19240,31,19245,68
2017-02-24 08:26:00,08:26:05,08:26:56,8046,8154,19240.0,63,19245.0,48,19240.0,19240.0,19235.0,19235.0,69,-69,19235,5,19240,55
2017-02-24 08:27:00,08:27:06,08:27:47,8168,8317,19235.0,19,19240.0,56,19235.0,19235.0,19230.0,19235.0,112,6,19235,23,19240,42
2017-02-24 08:28:00,08:28:07,08:28:58,8331,8392,19235.0,46,19240.0,49,19235.0,19240.0,19235.0,19235.0,27,-11,19235,30,19240,56
2017-02-24 08:29:00,08:29:03,08:29:59,8397,8539,19235.0,33,19240.0,55,19235.0,19235.0,19230.0,19235.0,130,-34,19235,3,19240,54
2017-02-24 08:30:00,08:30:14,08:30:58,8554,8660,19235.0,15,19240.0,58,19235.0,19245.0,19235.0,19245.0,109,69,19240,58,19245,9
2017-02-24 08:31:00,08:31:00,08:31:56,8667,8887,19245.0,2,19250.0,61,19245.0,19255.0,19245.0,19255.0,198,-10,19250,29,19255,45
2017-02-24 08:32:00,08:32:10,08:32:52,8895,9031,19250.0,33,19255.0,44,19255.0,19255.0,19250.0,19255.0,120,55,19255,13,19260,100
2017-02-24 08:33:00,08:33:06,08:33:57,9044,9341,19255.0,16,19260.0,100,19255.0,19275.0,19245.0,19270.0,368,142,19265,51,19270,20
2017-02-24 08:34:00,08:34:01,08:34:47,9355,9563,19265.0,50,19270.0,27,19270.0,19275.0,19270.0,19270.0,162,2,19270,42,19275,33
2017-02-24 08:35:00,08:35:07,08:35:58,9588,9768,19270.0,46,19275.0,34,19270.0,19275.0,19265.0,19265.0,214,-128,19265,32,19270,52
2017-02-24 08:36:00,08:36:08,08:36:59,9783,9882,19265.0,9,19270.0,56,19265.0,19265.0,19260.0,19265.0,66,40,19265,26,19270,59
2017-02-24 08:37:00,08:37:14,08:37:59,9888,10001,19265.0,27,19270.0,57,19265.0,19265.0,19265.0,19265.0,125,-109,19265,15,19270,55
2017-02-24 08:38:00,08:38:01,08:38:56,10008,10198,19265.0,15,19270.0,55,19265.0,19265.0,19260.0,19265.0,192,-65,19265,26,19270,50
2017-02-24 08:39:00,08:39:36,08:39:45,10215,10229,19265.0,38,19270.0,38,19265.0,19265.0,19265.0,19265.0,6,-6,19265,34,19270,37
2017-02-24 08:40:00,08:40:01,08:40:59,10244,11013,19265.0,42,19270.0,24,19270.0,19315.0,19270.0,19310.0,1244,400,19310,37,19315,54
2017-02-24 08:41:00,08:41:01,08:41:56,11018,11428,19310.0,42,19315.0,55,19315.0,19315.0,19305.0,19310.0,488,20,19310,21,19310,47
2017-02-24 08:42:00,08:42:01,08:42:54,11430,11647,19310.0,21,19315.0,90,19310.0,19310.0,19305.0,19310.0,201,-137,19305,22,19310,62
2017-02-24 08:43:00,08:43:04,08:43:57,11667,11977,19305.0,86,19310.0,42,19310.0,19325.0,19310.0,19320.0,326,60,19315,96,19320,40
2017-02-24 08:44:00,08:44:06,08:44:57,11988,12147,19315.0,97,19320.0,42,19315.0,19320.0,19310.0,19315.0,196,-164,19310,90,19315,35
2017-02-24 08:45:00,08:45:07,08:45:48,12157,12210,19310.0,91,19315.0,50,19315.0,19315.0,19310.0,19315.0,24,14,19310,88,19315,30
2017-02-24 08:46:00,08:46:08,08:46:59,12222,12290,19310.0,88,19315.0,43,19315.0,19315.0,19310.0,19315.0,26,10,19310,103,19315,40
2017-02-24 08:47:00,08:47:09,08:47:59,12300,12455,19310.0,104,19315.0,47,19315.0,19320.0,19315.0,19320.0,172,48,19310,110,19320,47
2017-02-24 08:48:00,08:48:00,08:48:54,12458,12542,19310.0,110,19320.0,47,19320.0,19320.0,19310.0,19315.0,63,-21,19310,97,19315,54
2017-02-24 08:49:00,08:49:02,08:49:55,12544,12658,19310.0,96,19315.0,54,19315.0,19315.0,19310.0,19315.0,114,16,19310,90,19315,38
2017-02-24 08:50:00,08:50:03,08:50:56,12669,13065,19310.0,89,19315.0,42,19310.0,19345.0,19310.0,19340.0,597,351,19335,98,19340,60
2017-02-24 08:51:00,08:51:02,08:51:58,13071,13176,19335.0,100,19340.0,58,19340.0,19345.0,19340.0,19345.0,80,28,19340,82,19345,106
2017-02-24 08:52:00,08:52:03,08:52:58,13183,13449,19340.0,76,19345.0,107,19340.0,19345.0,19335.0,19340.0,416,-88,19335,54,19340,97
2017-02-24 08:53:00,08:53:06,08:53:58,13457,13773,19335.0,37,19340.0,101,19335.0,19350.0,19335.0,19350.0,454,180,19345,28,19350,50
2017-02-24 08:54:00,08:54:01,08:54:57,13779,14085,19345.0,20,19350.0,51,19345.0,19355.0,19340.0,19340.0,474,185,19340,84,19345,48
2017-02-24 08:55:00,08:55:23,08:55:24,14104,14116,19340.0,107,19345.0,40,19340.0,19345.0,19340.0,19345.0,14,12,19340,106,19345,24
2017-02-24 08:56:00,08:56:07,08:56:49,14152,14391,19340.0,107,19345.0,45,19340.0,19345.0,19340.0,19340.0,371,-165,19335,130,19340,24
2017-02-24 08:57:00,08:57:00,08:57:21,14404,14419,19335.0,125,19340.0,33,19340.0,19340.0,19340.0,19340.0,2,2,19335,128,19340,40
2017-02-24 08:58:00,08:58:00,08:58:59,14442,14564,19335.0,125,19340.0,44,19340.0,19340.0,19335.0,19335.0,148,-142,19335,45,19340,61
2017-02-24 08:59:00,08:59:06,08:59:57,14578,14666,19335.0,63,19340.0,49,19335.0,19335.0,19335.0,19335.0,89,-35,19335,21,19340,69
2017-02-24 09:00:00,09:00:06,09:00:59,14681,14822,19335.0,40,19340.0,60,19335.0,19345.0,19335.0,19345.0,138,88,19345,12,19350,49
2017-02-24 09:01:00,09:01:00,09:01:55,14823,14987,19340.0,46,19345.0,28,19345.0,19350.0,19345.0,19350.0,209,29,19345,69,19350,30
2017-02-24 09:02:00,09:02:04,09:02:56,14999,15126,19345.0,68,19350.0,44,19345.0,19350.0,19345.0,19350.0,141,-89,19345,38,19345,51
2017-02-24 09:03:00,09:03:05,09:03:58,15130,15278,19345.0,39,19350.0,48,19345.0,19350.0,19335.0,19340.0,141,-97,19335,82,19340,43
2017-02-24 09:04:00,09:04:00,09:04:58,15282,15355,19335.0,83,19340.0,43,19335.0,19340.0,19335.0,19340.0,21,11,19335,58,19340,56
2017-02-24 09:05:00,09:05:08,09:05:59,15367,15507,19335.0,59,19340.0,58,19340.0,19340.0,19330.0,19335.0,135,-97,19330,20,19335,27
2017-02-24 09:06:00,09:06:05,09:06:55,15513,15728,19330.0,124,19335.0,44,19330.0,19335.0,19325.0,19330.0,274,-108,19330,21,19335,40
2017-02-24 09:07:00,09:07:02,09:07:58,15732,15906,19330.0,30,19335.0,42,19335.0,19335.0,19325.0,19330.0,185,-9,19325,70,19330,10
2017-02-24 09:08:00,09:08:13,09:08:54,15921,16013,19325.0,70,19330.0,27,19330.0,19330.0,19325.0,19330.0,65,19,19325,55,19330,42
2017-02-24 09:09:00,09:09:04,09:09:55,16023,16184,19325.0,55,19330.0,48,19330.0,19335.0,19325.0,19330.0,157,-19,19330,15,19335,49
2017-02-24 09:10:00,09:10:05,09:10:57,16201,16282,19330.0,26,19335.0,49,19335.0,19335.0,19330.0,19335.0,29,11,19330,44,19335,37
2017-02-24 09:11:00,09:11:00,09:11:57,16287,16419,19330.0,46,19335.0,37,19335.0,19335.0,19330.0,19330.0,93,7,19325,57,19330,11
2017-02-24 09:12:00,09:12:01,09:12:58,16427,16576,19325.0,58,19330.0,9,19330.0,19335.0,19330.0,19335.0,96,-22,19330,45,19335,54
2017-02-24 09:13:00,09:13:08,09:13:59,16587,16627,19330.0,51,19335.0,53,19335.0,19335.0,19335.0,19335.0,18,18,19330,52,19335,48
2017-02-24 09:14:00,09:14:03,09:14:59,16634,16773,19330.0,43,19335.0,55,19330.0,19335.0,19330.0,19335.0,95,-43,19330,49,19335,42
2017-02-24 09:15:00,09:15:00,09:15:57,16775,16868,19330.0,50,19335.0,42,19335.0,19335.0,19330.0,19335.0,39,35,19330,74,19335,29
2017-02-24 09:16:00,09:16:00,09:16:58,16871,17210,19330.0,74,19335.0,29,19335.0,19350.0,19335.0,19350.0,378,232,19345,46,19350,24
2017-02-24 09:17:00,09:17:01,09:17:59,17215,17391,19345.0,49,19350.0,27,19350.0,19350.0,19340.0,19345.0,144,-30,19340,40,19345,40
2017-02-24 09:18:00,09:18:02,09:18:53,17395,17530,19340.0,39,19345.0,58,19345.0,19350.0,19345.0,19350.0,123,123,19345,45,19350,43
2017-02-24 09:19:00,09:19:03,09:19:51,17535,17972,19345.0,44,19350.0,47,19350.0,19365.0,19350.0,19365.0,666,488,19360,42,19365,39
2017-02-24 09:20:00,09:20:08,09:20:23,17996,18121,19360.0,45,19365.0,33,19365.0,19365.0,19360.0,19365.0,149,-55,19360,71,19365,21
2017-02-24 09:21:00,09:21:03,09:21:58,18151,18334,19360.0,67,19365.0,43,19360.0,19360.0,19355.0,19355.0,191,-80,19355,60,19360,43
2017-02-24 09:22:00,09:22:09,09:22:50,18338,18434,19355.0,61,19360.0,43,19355.0,19360.0,19355.0,19360.0,111,61,19360,31,19365,41
2017-02-24 09:23:00,09:23:06,09:23:54,18444,18541,19360.0,34,19365.0,42,19360.0,19365.0,19360.0,19365.0,83,5,19360,48,19365,35
2017-02-24 09:24:00,09:24:08,09:24:48,18553,18655,19360.0,53,19365.0,40,19365.0,19365.0,19365.0,19365.0,113,111,19365,35,19370,121
2017-02-24 09:25:00,09:25:07,09:25:54,18672,18863,19365.0,32,19370.0,130,19365.0,19380.0,19360.0,19380.0,201,127,19375,71,19380,21
2017-02-24 09:26:00,09:26:00,09:26:39,18875,19164,19375.0,80,19380.0,21,19380.0,19380.0,19370.0,19375.0,358,-12,19375,12,19380,47
2017-02-24 09:27:00,09:27:09,09:27:55,19192,19306,19375.0,64,19380.0,45,19380.0,19385.0,19375.0,19380.0,107,83,19380,45,19385,55
2017-02-24 09:28:00,09:28:00,09:28:48,19318,19463,19380.0,34,19385.0,62,19385.0,19385.0,19370.0,19370.0,191,-155,19370,77,19375,50
2017-02-24 09:29:00,09:29:03,09:29:59,19474,19603,19370.0,77,19375.0,138,19370.0,19375.0,19370.0,19370.0,162,-126,19370,52,19375,29
2017-02-24 09:30:00,09:30:04,09:30:56,19609,19734,19370.0,59,19375.0,33,19370.0,19375.0,19370.0,19370.0,137,-19,19365,66,19370,74
2017-02-24 09:31:00,09:31:12,09:31:40,19750,19908,19365.0,74,19370.0,80,19365.0,19370.0,19365.0,19370.0,196,-44,19370,34,19375,55
2017-02-24 09:32:00,09:32:04,09:32:55,19924,20082,19370.0,33,19375.0,50,19370.0,19380.0,19370.0,19370.0,212,-20,19370,52,19375,53
2017-02-24 09:33:00,09:33:15,09:33:15,20091,20091,19370.0,51,19375.0,54,19375.0,19375.0,19375.0,19375.0,1,1,19370,52,19375,53
2017-02-24 09:34:00,09:34:02,09:34:29,20113,20139,19370.0,69,19375.0,56,19375.0,19375.0,19370.0,19370.0,40,-38,19365,38,19370,52
2017-02-24 09:35:00,09:35:17,09:35:43,20193,20205,19365.0,49,19370.0,64,19365.0,19365.0,19365.0,19365.0,2,-2,19365,48,19370,66
2017-02-24 09:36:00,09:36:09,09:36:42,20219,20276,19365.0,49,19370.0,67,19365.0,19365.0,19365.0,19365.0,47,-47,19360,47,19365,49
2017-02-24 09:37:00,09:37:13,09:37:49,20298,20394,19360.0,55,19365.0,75,19360.0,19360.0,19360.0,19360.0,108,-14,19360,3,19365,69
2017-02-24 09:38:00,09:38:00,09:38:45,20406,20529,19360.0,41,19365.0,75,19360.0,19365.0,19355.0,19360.0,125,-3,19360,27,19365,71
2017-02-24 09:39:00,09:39:18,09:39:48,20551,20606,19360.0,21,19365.0,75,19360.0,19360.0,19355.0,19355.0,22,-20,19355,47,19360,59
2017-02-24 09:40:00,09:40:38,09:40:56,20634,20704,19355.0,53,19360.0,63,19355.0,19360.0,19355.0,19360.0,80,74,19360,18,19365,64
2017-02-24 09:41:00,09:41:53,09:41:53,20746,20746,19360.0,29,19365.0,69,19360.0,19360.0,19360.0,19360.0,1,-1,19360,28,19365,70
2017-02-24 09:42:00,09:42:04,09:42:57,20750,21028,19360.0,28,19365.0,71,19360.0,19360.0,19345.0,19350.0,345,-169,19345,110,19350,14
2017-02-24 09:43:00,09:43:00,09:43:43,21033,21140,19345.0,110,19350.0,19,19345.0,19350.0,19345.0,19350.0,82,42,19345,89,19350,54
2017-02-24 09:44:00,09:44:01,09:44:36,21159,21261,19345.0,88,19350.0,55,19350.0,19350.0,19345.0,19345.0,118,64,19345,93,19350,33
2017-02-24 09:45:00,09:45:04,09:45:48,21281,21362,19345.0,92,19350.0,53,19350.0,19350.0,19345.0,19345.0,66,4,19345,101,19350,13
2017-02-24 09:46:00,09:46:04,09:46:48,21376,21403,19345.0,96,19350.0,37,19350.0,19350.0,19350.0,19350.0,6,6,19345,98,19350,41
2017-02-24 09:47:00,09:47:23,09:47:40,21410,21429,19345.0,98,19350.0,43,19350.0,19350.0,19345.0,19345.0,5,3,19345,96,19350,38
2017-02-24 09:48:00,09:48:19,09:48:58,21448,21539,19345.0,98,19350.0,38,19350.0,19355.0,19350.0,19355.0,80,12,19350,44,19355,40
2017-02-24 09:49:00,09:49:05,09:49:59,21549,21693,19350.0,41,19355.0,50,19350.0,19350.0,19345.0,19350.0,144,-82,19350,11,19355,51
2017-02-24 09:50:00,09:50:03,09:50:58,21701,21777,19350.0,33,19355.0,28,19355.0,19355.0,19355.0,19355.0,74,38,19350,46,19355,46
2017-02-24 09:51:00,09:51:39,09:51:42,21798,21840,19350.0,27,19355.0,51,19350.0,19350.0,19350.0,19350.0,44,-24,19345,91,19350,4
2017-02-24 09:52:00,09:52:10,09:52:47,21873,21916,19345.0,87,19350.0,42,19350.0,19350.0,19345.0,19345.0,33,-13,19345,64,19350,39
2017-02-24 09:53:00,09:53:09,09:53:41,21930,21963,19345.0,62,19350.0,43,19345.0,19350.0,19345.0,19350.0,24,22,19345,87,19350,27
2017-02-24 09:54:00,09:54:08,09:54:47,21987,22056,19350.0,68,19355.0,46,19355.0,19355.0,19355.0,19355.0,30,30,19350,61,19355,49
2017-02-24 09:55:00,09:55:07,09:55:31,22065,22134,19350.0,71,19355.0,39,19355.0,19355.0,19345.0,19345.0,82,-72,19345,70,19350,33
2017-02-24 09:56:00,09:56:20,09:56:35,22158,22226,19345.0,69,19350.0,41,19350.0,19350.0,19350.0,19350.0,84,46,19345,72,19350,6
2017-02-24 09:57:00,09:57:25,09:57:51,22253,22335,19345.0,74,19350.0,16,19350.0,19360.0,19350.0,19355.0,60,14,19350,63,19355,1
2017-02-24 09:58:00,09:58:10,09:58:43,22351,22392,19350.0,58,19355.0,21,19355.0,19355.0,19350.0,19350.0,48,-36,19350,10,19355,39
2017-02-24 09:59:00,09:59:00,09:59:46,22411,22538,19350.0,35,19355.0,40,19350.0,19350.0,19345.0,19350.0,156,38,19345,54,19350,9
2017-02-24 10:00:00,10:00:02,10:00:53,22553,22677,19345.0,54,19350.0,15,19350.0,19355.0,19350.0,19350.0,79,49,19345,53,19350,14
2017-02-24 10:01:00,10:01:03,10:01:54,22683,22770,19345.0,54,19350.0,12,19350.0,19350.0,19350.0,19350.0,66,58,19345,55,19350,28
2017-02-24 10:02:00,10:02:04,10:02:55,22780,22839,19345.0,49,19350.0,32,19350.0,19350.0,19345.0,19350.0,46,6,19345,55,19350,30
2017-02-24 10:03:00,10:03:05,10:03:56,22843,22901,19345.0,51,19350.0,26,19350.0,19355.0,19350.0,19355.0,32,32,19350,39,19355,38
2017-02-24 10:04:00,10:04:03,10:04:57,22908,22988,19350.0,42,19355.0,42,19350.0,19355.0,19350.0,19355.0,43,9,19350,37,19355,38
2017-02-24 10:05:00,10:05:06,10:05:58,22998,23055,19350.0,36,19355.0,47,19350.0,19355.0,19350.0,19355.0,32,28,19350,37,19355,28
2017-02-24 10:06:00,10:06:21,10:06:59,23074,23083,19350.0,43,19355.0,32,19350.0,19355.0,19350.0,19355.0,4,0,19350,42,19355,40
2017-02-24 10:07:00,10:07:26,10:07:26,23111,23111,19350.0,45,19355.0,44,19355.0,19355.0,19355.0,19355.0,1,1,19350,44,19355,42
2017-02-24 10:08:00,10:08:09,10:08:41,23133,23161,19350.0,39,19355.0,45,19355.0,19355.0,19350.0,19355.0,8,-2,19350,38,19355,51
2017-02-24 10:09:00,10:09:02,10:09:47,23169,23289,19350.0,35,19355.0,53,19350.0,19350.0,19350.0,19350.0,147,25,19345,41,19350,7
2017-02-24 10:10:00,10:10:23,10:10:47,23306,23372,19345.0,50,19350.0,24,19350.0,19350.0,19345.0,19350.0,59,6,19350,9,19355,47
2017-02-24 10:11:00,10:11:13,10:11:53,23385,23441,19350.0,42,19355.0,49,19350.0,19355.0,19350.0,19355.0,43,5,19350,29,19355,51
2017-02-24 10:12:00,10:12:08,10:12:50,23463,23476,19350.0,49,19355.0,49,19355.0,19355.0,19350.0,19350.0,2,0,19350,51,19355,53
2017-02-24 10:13:00,10:13:05,10:13:45,23484,23538,19350.0,45,19355.0,58,19350.0,19350.0,19350.0,19350.0,77,-13,19350,26,19355,42
2017-02-24 10:14:00,10:14:13,10:14:20,23558,23577,19350.0,31,19355.0,50,19355.0,19355.0,19350.0,19350.0,31,-29,19345,48,19350,11
2017-02-24 10:15:00,10:15:00,10:15:56,23591,23635,19345.0,49,19350.0,32,19345.0,19350.0,19345.0,19345.0,38,-14,19340,21,19345,46
2017-02-24 10:16:00,10:16:01,10:16:42,23645,23698,19340.0,25,19345.0,45,19340.0,19340.0,19335.0,19335.0,29,-27,19335,40,19340,46
2017-02-24 10:17:00,10:17:09,10:17:50,23715,23798,19335.0,41,19340.0,46,19340.0,19340.0,19335.0,19335.0,57,17,19335,43,19340,48
2017-02-24 10:18:00,10:18:46,10:18:46,23830,23830,19335.0,43,19340.0,53,19335.0,19335.0,19335.0,19335.0,2,-2,19335,41,19340,54
2017-02-24 10:19:00,10:19:01,10:19:48,23841,23918,19335.0,46,19340.0,55,19340.0,19340.0,19330.0,19335.0,66,-10,19335,26,19340,56
2017-02-24 10:20:00,10:20:04,10:20:42,23937,23993,19335.0,35,19340.0,56,19335.0,19335.0,19330.0,19330.0,34,-32,19330,48,19335,55
2017-02-24 10:21:00,10:21:42,10:21:59,24013,24091,19330.0,57,19335.0,69,19335.0,19340.0,19335.0,19340.0,92,54,19335,41,19340,49
2017-02-24 10:22:00,10:22:05,10:22:58,24096,24233,19335.0,41,19340.0,49,19340.0,19340.0,19330.0,19335.0,148,-31,19330,61,19335,24
2017-02-24 10:23:00,10:23:07,10:23:38,24243,24359,19330.0,61,19335.0,51,19335.0,19335.0,19330.0,19335.0,125,17,19335,9,19340,53
2017-02-24 10:24:00,10:24:04,10:24:59,24377,24425,19335.0,22,19340.0,55,19335.0,19335.0,19335.0,19335.0,36,-36,19330,44,19335,76
2017-02-24 10:25:00,10:25:08,10:25:46,24435,24595,19330.0,41,19335.0,83,19330.0,19335.0,19330.0,19335.0,250,42,19335,39,19340,50
2017-02-24 10:26:00,10:26:15,10:26:26,24618,24649,19335.0,55,19340.0,44,19340.0,19340.0,19335.0,19335.0,34,-22,19335,30,19340,43
2017-02-24 10:27:00,10:27:01,10:27:03,24671,24704,19335.0,45,19340.0,35,19340.0,19345.0,19340.0,19340.0,57,55,19340,24,19345,36
2017-02-24 10:28:00,10:28:03,10:28:45,24740,24762,19340.0,47,19345.0,24,19340.0,19345.0,19340.0,19345.0,14,12,19340,51,19345,24
2017-02-24 10:29:00,10:29:01,10:29:58,24779,24930,19340.0,44,19345.0,40,19345.0,19345.0,19335.0,19335.0,161,-97,19335,46,19340,23
2017-02-24 10:30:00,10:30:15,10:30:57,24947,25037,19335.0,41,19340.0,32,19340.0,19345.0,19340.0,19345.0,100,100,19340,36,19345,38
2017-02-24 10:31:00,10:31:10,10:31:18,25058,25084,19340.0,36,19345.0,39,19340.0,19340.0,19340.0,19340.0,21,-5,19340,25,19345,40
2017-02-24 10:32:00,10:32:45,10:32:45,25118,25118,19340.0,36,19345.0,46,19345.0,19345.0,19345.0,19345.0,1,1,19340,35,19345,45
2017-02-24 10:33:00,10:33:54,10:33:54,25126,25126,19340.0,34,19345.0,56,19345.0,19345.0,19345.0,19345.0,1,1,19340,35,19345,55
2017-02-24 10:34:00,10:34:06,10:34:06,25129,25130,19340.0,34,19345.0,56,19345.0,19345.0,19345.0,19345.0,2,2,19340,35,19345,54
2017-02-24 10:35:00,10:35:11,10:35:59,25149,25183,19340.0,37,19345.0,63,19345.0,19345.0,19345.0,19345.0,18,18,19340,36,19345,42
2017-02-24 10:36:00,10:36:08,10:36:57,25193,25242,19340.0,37,19345.0,46,19345.0,19350.0,19345.0,19350.0,37,37,19345,31,19350,47
2017-02-24 10:37:00,10:37:11,10:37:20,25246,25268,19345.0,31,19350.0,48,19350.0,19350.0,19345.0,19345.0,14,-12,19340,44,19345,33
2017-02-24 10:38:00,10:38:07,10:38:07,25293,25293,19340.0,52,19345.0,30,19340.0,19340.0,19340.0,19340.0,1,-1,19340,48,19345,29
2017-02-24 10:39:00,10:39:00,10:39:00,0,0,0.0,0,0.0,0,19340.0,19340.0,19340.0,19340.0,0,0,0,0,0,0
2017-02-24 10:40:00,10:40:02,10:40:31,25333,25404,19340.0,54,19345.0,31,19345.0,19345.0,19345.0,19345.0,81,13,19340,47,19345,14
2017-02-24 10:41:00,10:41:25,10:41:25,25434,25434,19340.0,46,19345.0,34,19345.0,19345.0,19345.0,19345.0,1,1,19340,45,19345,33
2017-02-24 10:42:00,10:42:00,10:42:00,0,0,0.0,0,0.0,0,19345.0,19345.0,19345.0,19345.0,0,0,0,0,0,0
2017-02-24 10:43:00,10:43:25,10:43:25,25465,25466,19340.0,24,19345.0,41,19345.0,19345.0,19345.0,19345.0,4,4,19340,27,19345,36
2017-02-24 10:44:00,10:44:00,10:44:00,0,0,0.0,0,0.0,0,19345.0,19345.0,19345.0,19345.0,0,0,0,0,0,0
2017-02-24 10:45:00,10:45:48,10:45:58,25497,25516,19340.0,41,19345.0,40,19345.0,19345.0,19345.0,19345.0,24,24,19340,36,19345,29
2017-02-24 10:46:00,10:46:06,10:46:22,25521,25562,19340.0,35,19345.0,30,19345.0,19345.0,19340.0,19340.0,58,-18,19340,23,19345,36
2017-02-24 10:47:00,10:47:01,10:47:01,25580,25581,19340.0,24,19345.0,37,19340.0,19340.0,19340.0,19340.0,2,-2,19340,19,19345,38
2017-02-24 10:48:00,10:48:04,10:48:07,25600,25610,19340.0,26,19345.0,36,19340.0,19340.0,19340.0,19340.0,10,-10,19335,34,19340,41
2017-02-24 10:49:00,10:49:04,10:49:49,25628,25648,19335.0,43,19340.0,38,19340.0,19340.0,19335.0,19340.0,21,19,19340,35,19340,19
2017-02-24 10:50:00,10:50:28,10:50:28,25656,25671,19335.0,47,19340.0,17,19340.0,19340.0,19340.0,19340.0,19,19,19340,35,19345,40
2017-02-24 10:51:00,10:51:03,10:51:03,25678,25680,19340.0,38,19345.0,40,19345.0,19345.0,19345.0,19345.0,3,3,19340,37,19345,37
2017-02-24 10:52:00,10:52:00,10:52:36,25694,25698,19340.0,39,19345.0,39,19345.0,19345.0,19345.0,19345.0,2,2,19340,37,19345,42
2017-02-24 10:53:00,10:53:35,10:53:35,25710,25712,19340.0,38,19345.0,42,19345.0,19345.0,19345.0,19345.0,3,3,19340,37,19345,38
2017-02-24 10:54:00,10:54:15,10:54:33,25718,25727,19340.0,36,19345.0,42,19345.0,19345.0,19345.0,19345.0,2,2,19340,37,19345,36
2017-02-24 10:55:00,10:55:00,10:55:00,0,0,0.0,0,0.0,0,19345.0,19345.0,19345.0,19345.0,0,0,0,0,0,0
2017-02-24 10:56:00,10:56:08,10:56:08,25735,25737,19340.0,37,19345.0,41,19345.0,19345.0,19345.0,19345.0,3,3,19340,38,19345,39
2017-02-24 10:57:00,10:57:19,10:57:54,25758,25770,19340.0,42,19345.0,38,19345.0,19345.0,19340.0,19340.0,3,-1,19340,33,19345,39
2017-02-24 10:58:00,10:58:08,10:58:44,25779,25797,19340.0,41,19345.0,38,19340.0,19345.0,19340.0,19340.0,8,0,19340,34,19345,46
2017-02-24 10:59:00,10:59:36,10:59:44,25809,25842,19340.0,36,19345.0,48,19340.0,19345.0,19340.0,19345.0,37,-35,19340,37,19345,38
2017-02-24 11:00:00,11:00:42,11:00:52,25863,25867,19340.0,35,19345.0,39,19345.0,19345.0,19345.0,19345.0,2,2,19340,33,19345,33
2017-02-24 11:01:00,11:01:12,11:01:43,25876,25884,19340.0,39,19345.0,32,19345.0,19345.0,19345.0,19345.0,4,4,19340,40,19345,27
2017-02-24 11:02:00,11:02:03,11:02:55,25887,25906,19340.0,40,19345.0,27,19345.0,19345.0,19345.0,19345.0,8,8,19340,36,19345,28
2017-02-24 11:03:00,11:03:04,11:03:34,25908,25917,19340.0,36,19345.0,30,19340.0,19345.0,19340.0,19345.0,4,2,19340,37,19345,28
2017-02-24 11:04:00,11:04:05,11:04:14,25923,25930,19340.0,36,19345.0,29,19345.0,19345.0,19340.0,19340.0,4,2,19340,36,19345,30
2017-02-24 11:05:00,11:05:15,11:05:58,25946,25977,19340.0,40,19345.0,28,19345.0,19345.0,19340.0,19345.0,11,3,19340,35,19345,27
2017-02-24 11:06:00,11:06:58,11:06:58,25987,26010,19340.0,31,19345.0,36,19340.0,19340.0,19340.0,19340.0,29,-29,19335,41,19340,4
2017-02-24 11:07:00,11:07:01,11:07:01,26017,26027,19335.0,36,19340.0,21,19340.0,19340.0,19340.0,19340.0,13,13,19335,42,19340,13
2017-02-24 11:08:00,11:08:00,11:08:00,0,0,0.0,0,0.0,0,19340.0,19340.0,19340.0,19340.0,0,0,0,0,0,0
2017-02-24 11:09:00,11:09:41,11:09:41,26093,26094,19335.0,33,19340.0,35,19340.0,19340.0,19340.0,19340.0,3,3,19335,32,19340,34
2017-02-24 11:10:00,11:10:00,11:10:00,0,0,0.0,0,0.0,0,19340.0,19340.0,19340.0,19340.0,0,0,0,0,0,0
2017-02-24 11:11:00,11:11:08,11:11:08,26124,26124,19335.0,39,19340.0,46,19335.0,19335.0,19335.0,19335.0,1,-1,19335,38,19340,45
2017-02-24 11:12:00,11:12:05,11:12:38,26157,26226,19335.0,32,19340.0,52,19335.0,19335.0,19330.0,19330.0,88,-88,19330,33,19335,29
2017-02-24 11:13:00,11:13:00,11:13:00,0,0,0.0,0,0.0,0,19330.0,19330.0,19330.0,19330.0,0,0,0,0,0,0
2017-02-24 11:14:00,11:14:05,11:14:26,26253,26313,19330.0,32,19335.0,35,19330.0,19330.0,19330.0,19330.0,83,-83,19325,35,19335,36
2017-02-24 11:15:00,11:15:01,11:15:51,26339,26439,19330.0,27,19335.0,46,19330.0,19330.0,19325.0,19325.0,149,21,19325,9,19330,45
2017-02-24 11:16:00,11:16:04,11:16:55,26451,26502,19325.0,9,19330.0,46,19325.0,19325.0,19320.0,19320.0,30,-30,19320,25,19325,32
2017-02-24 11:17:00,11:17:23,11:17:54,26524,26616,19320.0,29,19325.0,71,19320.0,19325.0,19320.0,19325.0,124,-6,19320,50,19325,38
2017-02-24 11:18:00,11:18:00,11:18:37,26627,26681,19320.0,55,19325.0,38,19325.0,19325.0,19320.0,19320.0,72,-70,19320,70,19325,36
2017-02-24 11:19:00,11:19:08,11:19:47,26686,26722,19320.0,72,19325.0,39,19325.0,19325.0,19325.0,19325.0,44,38,19325,31,19330,74
2017-02-24 11:20:00,11:20:00,11:20:00,0,0,0.0,0,0.0,0,19325.0,19325.0,19325.0,19325.0,0,0,0,0,0,0
2017-02-24 11:21:00,11:21:30,11:21:58,26737,26841,19325.0,38,19330.0,76,19330.0,19330.0,19325.0,19325.0,149,63,19325,16,19330,48
2017-02-24 11:22:00,11:22:18,11:22:27,26854,26924,19325.0,45,19330.0,41,19330.0,19330.0,19325.0,19325.0,86,4,19325,31,19330,37
2017-02-24 11:23:00,11:23:00,11:23:00,0,0,0.0,0,0.0,0,19325.0,19325.0,19325.0,19325.0,0,0,0,0,0,0
2017-02-24 11:24:00,11:24:56,11:24:56,26977,26978,19325.0,38,19330.0,51,19330.0,19330.0,19330.0,19330.0,3,3,19325,37,19330,48
2017-02-24 11:25:00,11:25:31,11:25:31,26987,26987,19325.0,35,19330.0,49,19330.0,19330.0,19330.0,19330.0,1,1,19325,37,19330,48
2017-02-24 11:26:00,11:26:00,11:26:00,0,0,0.0,0,0.0,0,19330.0,19330.0,19330.0,19330.0,0,0,0,0,0,0
2017-02-24 11:27:00,11:27:09,11:27:58,26995,27045,19325.0,35,19330.0,50,19325.0,19330.0,19325.0,19330.0,51,49,19325,39,19330,36
2017-02-24 11:28:00,11:28:00,11:28:00,0,0,0.0,0,0.0,0,19330.0,19330.0,19330.0,19330.0,0,0,0,0,0,0
2017-02-24 11:29:00,11:29:00,11:29:00,0,0,0.0,0,0.0,0,19330.0,19330.0,19330.0,19330.0,0,0,0,0,0,0
2017-02-24 11:30:00,11:30:00,11:30:56,27079,27347,19325.0,71,19330.0,45,19325.0,19330.0,19320.0,19330.0,307,-37,19325,54,19330,26
2017-02-24 11:31:00,11:31:02,11:31:59,27356,27399,19325.0,44,19330.0,40,19330.0,19330.0,19325.0,19325.0,5,3,19325,60,19330,42
2017-02-24 11:32:00,11:32:00,11:32:00,0,0,0.0,0,0.0,0,19325.0,19325.0,19325.0,19325.0,0,0,0,0,0,0
2017-02-24 11:33:00,11:33:00,11:33:34,27418,27502,19325.0,64,19330.0,58,19325.0,19325.0,19320.0,19320.0,120,-120,19320,39,19325,52
2017-02-24 11:34:00,11:34:11,11:34:41,27511,27548,19320.0,40,19325.0,54,19320.0,19320.0,19320.0,19320.0,12,-12,19320,34,19325,58
2017-02-24 11:35:00,11:35:04,11:35:57,27555,27593,19320.0,48,19325.0,58,19320.0,19325.0,19320.0,19325.0,7,5,19320,26,19325,60
2017-02-24 11:36:00,11:36:08,11:36:55,27598,27650,19320.0,25,19325.0,61,19320.0,19320.0,19315.0,19315.0,23,-21,19310,51,19315,53
2017-02-24 11:37:00,11:37:05,11:37:54,27659,27812,19310.0,51,19315.0,57,19310.0,19320.0,19310.0,19320.0,170,-29,19315,25,19320,74
2017-02-24 11:38:00,11:38:17,11:38:25,27825,27844,19315.0,18,19320.0,70,19315.0,19315.0,19310.0,19310.0,10,-8,19310,29,19315,40
2017-02-24 11:39:00,11:39:39,11:39:39,27870,27872,19310.0,37,19315.0,44,19310.0,19310.0,19310.0,19310.0,4,-4,19310,35,19315,45
2017-02-24 11:40:00,11:40:14,11:40:46,27888,27980,19310.0,26,19315.0,49,19310.0,19310.0,19310.0,19310.0,98,-36,19310,27,19315,61
2017-02-24 11:41:00,11:41:21,11:41:36,27998,28065,19310.0,34,19315.0,57,19310.0,19315.0,19310.0,19315.0,148,-74,19315,38,19320,66
2017-02-24 11:42:00,11:42:00,11:42:00,0,0,0.0,0,0.0,0,19315.0,19315.0,19315.0,19315.0,0,0,0,0,0,0
2017-02-24 11:43:00,11:43:09,11:43:51,28099,28156,19315.0,33,19320.0,65,19315.0,19315.0,19315.0,19315.0,48,6,19315,36,19320,39
2017-02-24 11:44:00,11:44:29,11:44:45,28164,28184,19315.0,38,19320.0,62,19320.0,19320.0,19315.0,19315.0,22,20,19315,45,19320,60
2017-02-24 11:45:00,11:45:00,11:45:00,0,0,0.0,0,0.0,0,19315.0,19315.0,19315.0,19315.0,0,0,0,0,0,0
2017-02-24 11:46:00,11:46:00,11:46:33,28205,28232,19315.0,48,19320.0,63,19320.0,19320.0,19315.0,19320.0,6,4,19315,34,19320,78
2017-02-24 11:47:00,11:47:00,11:47:00,0,0,0.0,0,0.0,0,19320.0,19320.0,19320.0,19320.0,0,0,0,0,0,0
2017-02-24 11:48:00,11:48:01,11:48:43,28245,28301,19315.0,38,19320.0,79,19320.0,19325.0,19315.0,19320.0,70,68,19320,55,19325,40
2017-02-24 11:49:00,11:49:02,11:49:49,28327,28419,19320.0,82,19325.0,26,19325.0,19325.0,19325.0,19325.0,88,36,19325,21,19330,74
2017-02-24 11:50:00,11:50:01,11:50:45,28432,28498,19325.0,27,19330.0,67,19325.0,19325.0,19320.0,19320.0,86,-86,19315,40,19320,21
2017-02-24 11:51:00,11:51:36,11:51:47,28520,28536,19315.0,48,19320.0,35,19320.0,19320.0,19315.0,19315.0,8,-6,19315,39,19320,45
2017-02-24 11:52:00,11:52:04,11:52:53,28543,28584,19315.0,42,19320.0,46,19315.0,19320.0,19315.0,19320.0,11,-9,19315,35,19320,45
2017-02-24 11:53:00,11:53:30,11:53:59,28597,28674,19315.0,46,19320.0,46,19320.0,19320.0,19315.0,19320.0,82,64,19315,55,19320,8
2017-02-24 11:54:00,11:54:05,11:54:38,28678,28714,19315.0,55,19320.0,9,19320.0,19325.0,19320.0,19325.0,16,16,19320,40,19325,50
2017-02-24 11:55:00,11:55:02,11:55:58,28725,28769,19320.0,40,19325.0,46,19325.0,19325.0,19320.0,19320.0,45,1,19320,14,19325,51
2017-02-24 11:56:00,11:56:08,11:56:49,28780,28899,19320.0,12,19325.0,53,19320.0,19320.0,19310.0,19310.0,107,-71,19305,42,19310,7
2017-02-24 11:57:00,11:57:06,11:57:24,28929,29001,19305.0,40,19310.0,32,19305.0,19305.0,19305.0,19305.0,89,33,19300,47,19310,54
2017-02-24 11:58:00,11:58:50,11:58:52,29051,29058,19300.0,34,19305.0,36,19305.0,19305.0,19300.0,19300.0,9,1,19300,39,19305,33
2017-02-24 11:59:00,11:59:21,11:59:43,29074,29155,19300.0,30,19305.0,38,19300.0,19300.0,19295.0,19295.0,57,-47,19290,46,19295,28
2017-02-24 12:00:00,12:00:11,12:00:59,29177,29360,19290.0,39,19295.0,55,19290.0,19295.0,19285.0,19295.0,237,19,19290,52,19295,3
2017-02-24 12:01:00,12:01:00,12:01:51,29361,29578,19295.0,11,19300.0,101,19295.0,19295.0,19280.0,19280.0,238,-180,19275,36,19280,16
2017-02-24 12:02:00,12:02:03,12:02:56,29598,29811,19275.0,32,19280.0,44,19280.0,19280.0,19270.0,19275.0,207,-53,19270,51,19275,9
2017-02-24 12:03:00,12:03:01,12:03:52,29817,29957,19270.0,55,19275.0,16,19275.0,19280.0,19270.0,19275.0,142,60,19275,63,19280,66
2017-02-24 12:04:00,12:04:10,12:04:59,29973,30366,19275.0,87,19280.0,65,19280.0,19295.0,19280.0,19290.0,633,234,19285,60,19295,72
2017-02-24 12:05:00,12:05:02,12:05:54,30371,30477,19285.0,59,19290.0,16,19290.0,19290.0,19275.0,19275.0,124,-86,19275,50,19280,50
2017-02-24 12:06:00,12:06:03,12:06:51,30482,30844,19275.0,50,19280.0,60,19280.0,19280.0,19265.0,19270.0,523,-183,19270,44,19275,47
2017-02-24 12:07:00,12:07:02,12:07:52,30856,31331,19270.0,30,19275.0,57,19270.0,19270.0,19260.0,19265.0,756,-58,19265,64,19270,37
2017-02-24 12:08:00,12:08:09,12:08:55,31355,31646,19265.0,55,19270.0,48,19265.0,19265.0,19245.0,19250.0,445,-97,19245,75,19250,17
2017-02-24 12:09:00,12:09:01,12:09:48,31657,31800,19245.0,62,19250.0,51,19250.0,19255.0,19245.0,19250.0,199,115,19250,58,19255,44
2017-02-24 12:10:00,12:10:07,12:10:58,31826,31976,19250.0,72,19255.0,50,19255.0,19260.0,19250.0,19255.0,187,-51,19255,92,19260,55
2017-02-24 12:11:00,12:11:00,12:11:57,31979,32049,19255.0,92,19260.0,55,19260.0,19260.0,19255.0,19255.0,61,-47,19250,95,19255,36
2017-02-24 12:12:00,12:12:05,12:12:55,32056,32279,19250.0,93,19255.0,41,19255.0,19255.0,19250.0,19255.0,322,-48,19255,27,19260,62
2017-02-24 12:13:00,12:13:01,12:13:50,32290,32448,19255.0,31,19260.0,61,19255.0,19260.0,19245.0,19245.0,235,-171,19245,34,19250,45
2017-02-24 12:14:00,12:14:05,12:14:58,32470,32622,19245.0,46,19250.0,46,19250.0,19260.0,19250.0,19255.0,145,63,19250,108,19255,4
2017-02-24 12:15:00,12:15:04,12:15:50,32632,32772,19250.0,99,19255.0,41,19255.0,19255.0,19250.0,19250.0,209,89,19250,41,19255,127
2017-02-24 12:16:00,12:16:05,12:16:59,32786,32951,19250.0,81,19255.0,128,19250.0,19255.0,19250.0,19255.0,293,99,19250,69,19255,24
2017-02-24 12:17:00,12:17:04,12:17:55,32955,33169,19250.0,69,19255.0,39,19255.0,19255.0,19245.0,19245.0,281,-32,19240,53,19245,34
2017-02-24 12:18:00,12:18:07,12:18:32,33184,33253,19240.0,61,19245.0,39,19245.0,19245.0,19240.0,19240.0,86,-32,19240,46,19245,30
2017-02-24 12:19:00,12:19:25,12:19:58,33281,33394,19240.0,52,19245.0,36,19245.0,19245.0,19245.0,19245.0,200,-66,19240,52,19245,48
2017-02-24 12:20:00,12:20:02,12:20:57,33401,33574,19240.0,52,19245.0,32,19245.0,19245.0,19230.0,19230.0,249,-71,19230,59,19235,46
2017-02-24 12:21:00,12:21:00,12:21:52,33581,33777,19230.0,58,19235.0,66,19235.0,19235.0,19225.0,19230.0,311,-59,19230,103,19235,81
2017-02-24 12:22:00,12:22:12,12:22:54,33789,33908,19230.0,105,19235.0,82,19235.0,19240.0,19235.0,19240.0,150,132,19235,44,19240,13
2017-02-24 12:23:00,12:23:07,12:23:52,33923,34038,19235.0,50,19240.0,114,19235.0,19240.0,19235.0,19235.0,126,-14,19230,103,19235,52
2017-02-24 12:24:00,12:24:00,12:24:37,34044,34102,19230.0,101,19235.0,38,19235.0,19235.0,19235.0,19235.0,57,35,19230,102,19235,28
2017-02-24 12:25:00,12:25:00,12:25:58,34124,34380,19230.0,103,19235.0,49,19235.0,19235.0,19225.0,19230.0,352,-170,19225,62,19230,33
2017-02-24 12:26:00,12:26:14,12:26:55,34408,34991,19225.0,65,19230.0,31,19230.0,19255.0,19220.0,19250.0,903,552,19250,14,19255,54
2017-02-24 12:27:00,12:27:01,12:27:59,35003,35213,19250.0,31,19255.0,54,19250.0,19255.0,19250.0,19250.0,211,76,19245,52,19255,65
2017-02-24 12:28:00,12:28:00,12:28:58,35216,35334,19245.0,52,19255.0,65,19250.0,19255.0,19250.0,19255.0,113,13,19250,37,19255,61
2017-02-24 12:29:00,12:29:03,12:29:42,35339,35393,19250.0,37,19255.0,61,19250.0,19255.0,19250.0,19255.0,47,33,19255,49,19260,45
2017-02-24 12:30:00,12:30:07,12:30:29,35409,35504,19255.0,59,19260.0,49,19260.0,19260.0,19255.0,19255.0,126,-10,19250,51,19260,53
2017-02-24 12:31:00,12:31:51,12:31:51,35543,35547,19255.0,33,19260.0,56,19260.0,19260.0,19260.0,19260.0,5,5,19255,35,19260,52
2017-02-24 12:32:00,12:32:02,12:32:53,35555,35661,19255.0,27,19260.0,58,19255.0,19255.0,19255.0,19255.0,63,-27,19250,54,19255,4
2017-02-24 12:33:00,12:33:09,12:33:09,35680,35685,19250.0,54,19255.0,14,19255.0,19255.0,19255.0,19255.0,14,14,19255,25,19260,37
2017-02-24 12:34:00,12:34:15,12:34:32,35701,35707,19255.0,35,19260.0,43,19260.0,19260.0,19260.0,19260.0,3,3,19255,36,19260,46
2017-02-24 12:35:00,12:35:05,12:35:47,35714,35885,19255.0,42,19260.0,25,19260.0,19270.0,19260.0,19260.0,170,34,19260,37,19265,20
2017-02-24 12:36:00,12:36:10,12:36:55,35898,35956,19260.0,41,19265.0,22,19265.0,19270.0,19265.0,19270.0,44,44,19265,34,19270,55
2017-02-24 12:37:00,12:37:54,12:37:54,35983,36016,19265.0,44,19270.0,68,19265.0,19265.0,19265.0,19265.0,46,-46,19260,48,19270,71
2017-02-24 12:38:00,12:38:47,12:38:55,36035,36081,19260.0,49,19265.0,37,19260.0,19265.0,19260.0,19265.0,51,-7,19260,35,19265,23
2017-02-24 12:39:00,12:39:00,12:39:40,36092,36157,19260.0,63,19265.0,14,19265.0,19270.0,19265.0,19270.0,120,20,19265,31,19270,35
2017-02-24 12:40:00,12:40:02,12:40:54,36176,36299,19265.0,29,19270.0,47,19270.0,19270.0,19260.0,19260.0,141,-119,19260,17,19265,50
2017-02-24 12:41:00,12:41:00,12:41:00,0,0,0.0,0,0.0,0,19260.0,19260.0,19260.0,19260.0,0,0,0,0,0,0
2017-02-24 12:42:00,12:42:20,12:42:23,36323,36379,19260.0,42,19265.0,35,19265.0,19265.0,19265.0,19265.0,88,88,19265,21,19270,47
2017-02-24 12:43:00,12:43:15,12:43:44,36410,36464,19265.0,34,19270.0,41,19265.0,19265.0,19265.0,19265.0,57,-25,19265,29,19270,41
2017-02-24 12:44:00,12:44:55,12:44:55,36504,36504,19265.0,26,19270.0,52,19270.0,19270.0,19270.0,19270.0,1,1,19265,28,19275,41
2017-02-24 12:45:00,12:45:00,12:45:26,36506,36567,19265.0,28,19270.0,52,19270.0,19275.0,19270.0,19275.0,57,47,19270,39,19275,27
2017-02-24 12:46:00,12:46:05,12:46:32,36580,36598,19270.0,36,19275.0,38,19270.0,19270.0,19270.0,19270.0,13,-13,19270,30,19275,35
2017-02-24 12:47:00,12:47:29,12:47:59,36617,36639,19270.0,33,19275.0,38,19275.0,19275.0,19275.0,19275.0,5,5,19270,38,19275,32
2017-02-24 12:48:00,12:48:31,12:48:34,36648,36683,19270.0,41,19275.0,36,19275.0,19275.0,19270.0,19270.0,56,-52,19265,38,19270,26
2017-02-24 12:49:00,12:49:09,12:49:10,36704,36729,19265.0,25,19270.0,54,19265.0,19265.0,19265.0,19265.0,52,-52,19260,38,19265,17
2017-02-24 12:50:00,12:50:03,12:50:55,36759,36832,19260.0,33,19265.0,29,19260.0,19265.0,19260.0,19265.0,77,-25,19265,22,19270,49
2017-02-24 12:51:00,12:51:00,12:51:00,0,0,0.0,0,0.0,0,19265.0,19265.0,19265.0,19265.0,0,0,0,0,0,0
2017-02-24 12:52:00,12:52:22,12:52:28,36874,36931,19265.0,31,19270.0,47,19265.0,19275.0,19265.0,19270.0,98,34,19265,34,19270,17
2017-02-24 12:53:00,12:53:06,12:53:32,36951,36983,19265.0,48,19270.0,26,19270.0,19270.0,19265.0,19265.0,41,-25,19260,33,19265,27
2017-02-24 12:54:00,12:54:06,12:54:06,36999,37000,19260.0,34,19265.0,34,19260.0,19260.0,19260.0,19260.0,2,-2,19260,33,19265,35
2017-02-24 12:55:00,12:55:01,12:55:12,37012,37020,19260.0,35,19265.0,40,19260.0,19265.0,19260.0,19260.0,5,-3,19260,32,19265,38
2017-02-24 12:56:00,12:56:27,12:56:46,37032,37039,19260.0,38,19265.0,40,19265.0,19265.0,19260.0,19260.0,4,2,19260,35,19265,36
2017-02-24 12:57:00,12:57:08,12:57:51,37045,37070,19260.0,38,19265.0,38,19260.0,19265.0,19260.0,19265.0,6,-2,19260,43,19265,31
2017-02-24 12:58:00,12:58:04,12:58:51,37075,37101,19260.0,49,19265.0,31,19260.0,19265.0,19260.0,19260.0,8,-2,19260,55,19265,22
2017-02-24 12:59:00,12:59:00,12:59:57,37105,37227,19260.0,55,19265.0,27,19265.0,19275.0,19260.0,19275.0,75,39,19270,49,19275,17
2017-02-24 13:00:00,13:00:00,13:00:55,37231,37392,19270.0,50,19275.0,17,19275.0,19275.0,19270.0,19270.0,140,-114,19265,44,19270,10
2017-02-24 13:01:00,13:01:03,13:01:28,37401,37435,19265.0,52,19270.0,2,19270.0,19270.0,19270.0,19270.0,24,-4,19265,53,19275,45
2017-02-24 13:02:00,13:02:05,13:02:31,37451,37488,19265.0,55,19270.0,9,19270.0,19275.0,19270.0,19275.0,23,7,19270,36,19275,20
2017-02-24 13:03:00,13:03:56,13:03:56,37538,37540,19270.0,48,19275.0,18,19275.0,19275.0,19275.0,19275.0,8,8,19275,16,19280,46
2017-02-24 13:04:00,13:04:35,13:04:58,37560,37591,19275.0,26,19280.0,46,19280.0,19280.0,19280.0,19280.0,17,17,19275,36,19280,40
2017-02-24 13:05:00,13:05:30,13:05:33,37617,37649,19275.0,27,19280.0,44,19275.0,19275.0,19270.0,19270.0,49,-39,19265,34,19270,28
2017-02-24 13:06:00,13:06:00,13:06:05,37674,37716,19265.0,34,19270.0,38,19270.0,19270.0,19270.0,19270.0,38,18,19265,42,19270,5
2017-02-24 13:07:00,13:07:00,13:07:20,37749,37804,19265.0,44,19270.0,28,19265.0,19265.0,19260.0,19260.0,54,-34,19260,19,19265,27
2017-02-24 13:08:00,13:08:00,13:08:46,37821,37879,19260.0,26,19265.0,24,19265.0,19265.0,19260.0,19265.0,39,-33,19260,39,19265,20
2017-02-24 13:09:00,13:09:04,13:09:26,37888,37963,19260.0,41,19265.0,16,19265.0,19270.0,19265.0,19270.0,84,11,19265,49,19275,54
2017-02-24 13:10:00,13:10:02,13:10:52,37978,38049,19270.0,28,19275.0,43,19275.0,19275.0,19265.0,19265.0,60,-4,19265,36,19270,40
2017-02-24 13:11:00,13:11:03,13:11:55,38054,38153,19265.0,40,19270.0,39,19265.0,19270.0,19265.0,19270.0,72,42,19265,40,19270,9
2017-02-24 13:12:00,13:12:32,13:12:33,38176,38193,19265.0,29,19270.0,41,19265.0,19265.0,19265.0,19265.0,20,-20,19260,36,19265,29
2017-02-24 13:13:00,13:13:07,13:13:50,38213,38243,19260.0,31,19265.0,41,19265.0,19265.0,19265.0,19265.0,22,22,19265,25,19270,58
2017-02-24 13:14:00,13:14:25,13:14:53,38254,38294,19265.0,28,19270.0,56,19270.0,19270.0,19270.0,19270.0,50,48,19270,7,19275,40
2017-02-24 13:15:00,13:15:01,13:15:42,38312,38349,19270.0,33,19275.0,26,19270.0,19275.0,19270.0,19270.0,11,7,19270,27,19275,30
2017-02-24 13:16:00,13:16:11,13:16:40,38361,38371,19270.0,44,19275.0,26,19270.0,19270.0,19270.0,19270.0,2,-2,19270,43,19275,24
2017-02-24 13:17:00,13:17:05,13:17:54,38379,38461,19270.0,45,19275.0,33,19275.0,19280.0,19270.0,19275.0,76,44,19270,48,19275,18
2017-02-24 13:18:00,13:18:00,13:18:52,38469,38541,19270.0,48,19275.0,18,19275.0,19280.0,19275.0,19280.0,57,55,19275,33,19280,13
2017-02-24 13:19:00,13:19:01,13:19:40,38557,38647,19275.0,38,19280.0,28,19280.0,19280.0,19275.0,19275.0,48,22,19275,22,19280,40
2017-02-24 13:20:00,13:20:03,13:20:33,38657,38676,19275.0,24,19280.0,38,19275.0,19280.0,19275.0,19280.0,4,0,19275,52,19280,29
2017-02-24 13:21:00,13:21:01,13:21:59,38692,38772,19275.0,75,19280.0,23,19275.0,19285.0,19275.0,19280.0,58,52,19280,62,19285,36
2017-02-24 13:22:00,13:22:00,13:22:51,38775,38866,19280.0,62,19285.0,36,19285.0,19285.0,19285.0,19285.0,119,5,19280,38,19290,50
2017-02-24 13:23:00,13:23:26,13:23:55,38890,38899,19285.0,40,19290.0,47,19285.0,19285.0,19285.0,19285.0,3,-3,19285,39,19290,47
2017-02-24 13:24:00,13:24:01,13:24:53,38903,38960,19285.0,39,19290.0,48,19285.0,19285.0,19280.0,19280.0,37,-37,19280,41,19285,44
2017-02-24 13:25:00,13:25:11,13:25:49,38969,39028,19280.0,48,19285.0,32,19285.0,19285.0,19280.0,19280.0,46,18,19280,43,19285,69
2017-02-24 13:26:00,13:26:00,13:26:58,39035,39086,19280.0,46,19285.0,69,19285.0,19285.0,19280.0,19285.0,8,0,19280,23,19285,87
2017-02-24 13:27:00,13:27:06,13:27:41,39089,39120,19280.0,23,19285.0,87,19285.0,19285.0,19280.0,19280.0,15,-13,19280,36,19285,71
2017-02-24 13:28:00,13:28:09,13:28:59,39134,39176,19280.0,17,19285.0,89,19280.0,19285.0,19280.0,19285.0,7,-1,19280,15,19285,88
2017-02-24 13:29:00,13:29:05,13:29:36,39178,39205,19280.0,19,19285.0,88,19280.0,19285.0,19280.0,19285.0,7,3,19280,34,19285,83
2017-02-24 13:30:00,13:30:01,13:30:57,39223,39265,19280.0,20,19285.0,86,19280.0,19285.0,19280.0,19280.0,16,-12,19280,25,19285,78
2017-02-24 13:31:00,13:31:25,13:31:53,39280,39295,19280.0,43,19285.0,80,19280.0,19285.0,19280.0,19280.0,4,0,19280,40,19285,82
2017-02-24 13:32:00,13:32:01,13:32:56,39304,39405,19280.0,41,19285.0,83,19285.0,19285.0,19275.0,19275.0,141,45,19270,39,19275,34
2017-02-24 13:33:00,13:33:00,13:33:53,39411,39615,19270.0,40,19275.0,39,19275.0,19275.0,19265.0,19270.0,240,-16,19265,56,19270,7
2017-02-24 13:34:00,13:34:00,13:34:56,39621,39855,19265.0,41,19270.0,28,19270.0,19270.0,19260.0,19265.0,261,-104,19260,41,19265,3
2017-02-24 13:35:00,13:35:09,13:35:36,39866,39919,19260.0,42,19265.0,19,19265.0,19265.0,19265.0,19265.0,34,28,19260,27,19265,32
2017-02-24 13:36:00,13:36:05,13:36:53,39938,40007,19260.0,46,19265.0,28,19260.0,19270.0,19260.0,19265.0,51,25,19260,46,19270,53
2017-02-24 13:37:00,13:37:07,13:37:50,40023,40086,19260.0,48,19265.0,20,19265.0,19265.0,19265.0,19265.0,35,1,19260,50,19265,9
2017-02-24 13:38:00,13:38:00,13:38:57,40093,40275,19260.0,50,19265.0,7,19265.0,19265.0,19255.0,19260.0,220,-40,19255,28,19260,26
2017-02-24 13:39:00,13:39:17,13:39:58,40283,40388,19255.0,44,19260.0,25,19255.0,19265.0,19255.0,19265.0,94,54,19260,40,19265,11
2017-02-24 13:40:00,13:40:01,13:40:55,40394,40462,19265.0,8,19270.0,55,19265.0,19270.0,19265.0,19265.0,50,-2,19260,46,19265,8
2017-02-24 13:41:00,13:41:07,13:41:59,40475,40521,19260.0,45,19265.0,6,19260.0,19265.0,19260.0,19265.0,19,9,19260,48,19265,4
2017-02-24 13:42:00,13:42:00,13:42:44,40522,40585,19260.0,40,19265.0,32,19265.0,19270.0,19265.0,19265.0,59,49,19265,24,19270,42
2017-02-24 13:43:00,13:43:05,13:43:33,40591,40626,19265.0,30,19270.0,41,19265.0,19265.0,19260.0,19260.0,31,-31,19260,50,19265,25
2017-02-24 13:44:00,13:44:01,13:44:57,40639,40688,19260.0,55,19265.0,31,19260.0,19270.0,19260.0,19270.0,20,8,19265,28,19270,45
2017-02-24 13:45:00,13:45:08,13:45:57,40699,40760,19265.0,30,19270.0,50,19265.0,19265.0,19265.0,19265.0,63,-11,19260,60,19265,35
2017-02-24 13:46:00,13:46:06,13:46:51,40767,40919,19260.0,56,19265.0,42,19265.0,19265.0,19250.0,19255.0,129,-101,19255,11,19260,62
2017-02-24 13:47:00,13:47:12,13:47:55,40937,40990,19255.0,39,19260.0,65,19255.0,19260.0,19255.0,19255.0,36,-28,19255,9,19260,74
2017-02-24 13:48:00,13:48:26,13:48:57,41014,41161,19255.0,21,19260.0,81,19255.0,19255.0,19250.0,19250.0,206,-134,19250,45,19255,34
2017-02-24 13:49:00,13:49:08,13:49:54,41174,41264,19250.0,64,19255.0,54,19250.0,19255.0,19250.0,19255.0,104,-38,19250,48,19255,71
2017-02-24 13:50:00,13:50:04,13:50:55,41269,41360,19250.0,52,19255.0,71,19255.0,19255.0,19250.0,19255.0,88,8,19250,49,19255,49
2017-02-24 13:51:00,13:51:05,13:51:56,41366,41487,19250.0,50,19255.0,51,19255.0,19260.0,19250.0,19260.0,106,48,19255,68,19260,14
2017-02-24 13:52:00,13:52:06,13:52:47,41499,41630,19255.0,61,19260.0,38,19260.0,19265.0,19255.0,19265.0,140,134,19260,50,19265,46
2017-02-24 13:53:00,13:53:13,13:53:48,41647,41748,19260.0,61,19265.0,32,19265.0,19270.0,19265.0,19270.0,65,-11,19265,29,19270,62
2017-02-24 13:54:00,13:54:06,13:54:58,41764,41950,19265.0,32,19270.0,63,19265.0,19270.0,19265.0,19270.0,209,37,19265,73,19270,16
2017-02-24 13:55:00,13:55:01,13:55:59,41960,42224,19265.0,61,19270.0,45,19265.0,19280.0,19265.0,19275.0,344,112,19275,21,19280,51
2017-02-24 13:56:00,13:56:00,13:56:53,42226,42388,19270.0,82,19280.0,51,19280.0,19280.0,19265.0,19270.0,146,-71,19265,19,19270,62
2017-02-24 13:57:00,13:57:01,13:57:52,42402,42587,19265.0,20,19270.0,62,19270.0,19275.0,19265.0,19275.0,184,132,19270,49,19275,42
2017-02-24 13:58:00,13:58:01,13:58:42,42598,42803,19270.0,54,19275.0,49,19270.0,19280.0,19270.0,19280.0,327,93,19275,94,19280,10
2017-02-24 13:59:00,13:59:01,13:59:59,42828,43461,19275.0,103,19280.0,37,19280.0,19285.0,19275.0,19285.0,1095,244,19280,44,19285,50
2017-02-24 14:00:00,14:00:00,14:00:59,43462,43945,19275.0,59,19280.0,16,19280.0,19290.0,19275.0,19290.0,789,189,19285,132,19290,91
2017-02-24 14:01:00,14:01:00,14:01:53,43948,44158,19285.0,132,19290.0,91,19290.0,19290.0,19280.0,19285.0,336,-140,19280,116,19285,46
2017-02-24 14:02:00,14:02:00,14:02:58,44164,44447,19280.0,116,19285.0,58,19285.0,19285.0,19270.0,19275.0,404,-94,19275,9,19280,57
2017-02-24 14:03:00,14:03:00,14:03:58,44452,44581,19275.0,33,19280.0,57,19280.0,19280.0,19270.0,19275.0,127,-43,19275,21,19280,88
2017-02-24 14:04:00,14:04:00,14:04:58,44586,44688,19275.0,18,19280.0,88,19280.0,19280.0,19275.0,19280.0,108,96,19275,48,19280,44
2017-02-24 14:05:00,14:05:07,14:05:52,44709,44867,19275.0,23,19280.0,89,19275.0,19275.0,19270.0,19270.0,186,-14,19265,41,19270,52
2017-02-24 14:06:00,14:06:00,14:06:41,44873,45026,19265.0,40,19270.0,51,19265.0,19275.0,19265.0,19270.0,119,-23,19265,49,19270,52
2017-02-24 14:07:00,14:07:05,14:07:55,45037,45144,19265.0,44,19270.0,61,19265.0,19270.0,19265.0,19270.0,87,13,19265,65,19270,10
2017-02-24 14:08:00,14:08:07,14:08:52,45160,45255,19265.0,69,19270.0,20,19270.0,19275.0,19270.0,19275.0,79,39,19270,76,19275,38
2017-02-24 14:09:00,14:09:00,14:09:58,45265,45493,19270.0,68,19275.0,59,19275.0,19285.0,19275.0,19280.0,266,46,19280,28,19285,83
