,ST,ET,sidx,eidx,bB,bBS,bA,bAS,O,H,L,C,V,OF,eB,eBS,eA,eAS
2017-01-11 08:00:00,08:00:00,08:00:58,2449,2842,19355.0,38,19360.0,13,19360.0,19360.0,19350.0,19355.0,512,-154,19350,50,19355,26
2017-01-11 08:01:00,08:01:00,08:01:59,2847,3159,19350.0,50,19355.0,36,19350.0,19355.0,19340.0,19340.0,318,-60,19340,30,19345,34
2017-01-11 08:02:00,08:02:00,08:02:59,3162,3442,19340.0,30,19345.0,34,19340.0,19345.0,19335.0,19340.0,366,-186,19340,17,19345,51
2017-01-11 08:03:00,08:03:00,08:03:59,3447,3621,19340.0,16,19345.0,50,19340.0,19350.0,19340.0,19345.0,121,-14,19340,40,19345,3
2017-01-11 08:04:00,08:04:00,08:04:55,3624,3782,19340.0,40,19345.0,3,19345.0,19345.0,19340.0,19340.0,115,-29,19340,13,19345,53
2017-01-11 08:05:00,08:05:01,08:05:55,3794,4026,19340.0,9,19345.0,55,19340.0,19345.0,19340.0,19340.0,208,-106,19340,25,19345,51
2017-01-11 08:06:00,08:06:01,08:06:50,4036,4171,19340.0,6,19345.0,62,19340.0,19340.0,19335.0,19335.0,76,-30,19335,33,19340,39
2017-01-11 08:07:00,08:07:05,08:07:59,4181,4460,19335.0,24,19340.0,50,19340.0,19350.0,19335.0,19345.0,292,100,19345,13,19350,43
2017-01-11 08:08:00,08:08:00,08:08:59,4463,4959,19345.0,13,19350.0,43,19350.0,19350.0,19325.0,19330.0,577,-85,19330,43,19335,43
2017-01-11 08:09:00,08:09:00,08:09:57,4961,5196,19330.0,43,19335.0,39,19330.0,19335.0,19315.0,19315.0,351,-182,19315,32,19320,45
2017-01-11 08:10:00,08:10:04,08:10:56,5212,5838,19315.0,41,19320.0,63,19315.0,19355.0,19310.0,19355.0,953,601,19350,46,19355,26
2017-01-11 08:11:00,08:11:01,08:11:59,5847,6234,19350.0,48,19355.0,33,19355.0,19365.0,19345.0,19360.0,457,-31,19355,45,19360,20
2017-01-11 08:12:00,08:12:01,08:12:58,6238,6348,19355.0,45,19360.0,25,19360.0,19360.0,19355.0,19360.0,88,56,19355,81,19360,17
2017-01-11 08:13:00,08:13:05,08:13:59,6354,6488,19355.0,81,19360.0,20,19360.0,19365.0,19355.0,19355.0,130,-6,19350,88,19355,8
2017-01-11 08:14:00,08:14:01,08:14:47,6493,6660,19350.0,88,19355.0,25,19355.0,19355.0,19345.0,19345.0,132,-4,19345,9,19350,41
2017-01-11 08:15:00,08:15:00,08:15:54,6678,6822,19345.0,39,19350.0,28,19345.0,19350.0,19345.0,19350.0,79,17,19345,32,19350,38
2017-01-11 08:16:00,08:16:01,08:16:45,6829,6953,19345.0,34,19350.0,31,19345.0,19355.0,19345.0,19355.0,83,61,19350,42,19355,5
2017-01-11 08:17:00,08:17:11,08:17:59,6982,7192,19350.0,44,19355.0,44,19350.0,19350.0,19340.0,19345.0,199,-59,19340,36,19350,45
2017-01-11 08:18:00,08:18:10,08:18:56,7204,7310,19340.0,28,19345.0,36,19340.0,19340.0,19330.0,19335.0,84,-48,19335,28,19340,35
2017-01-11 08:19:00,08:19:06,08:19:56,7333,7583,19335.0,23,19340.0,46,19335.0,19345.0,19335.0,19345.0,250,125,19345,7,19350,41
2017-01-11 08:20:00,08:20:00,08:20:51,7596,7795,19345.0,15,19350.0,39,19345.0,19355.0,19345.0,19355.0,155,61,19350,38,19355,16
2017-01-11 08:21:00,08:21:12,08:21:58,7821,7952,19350.0,27,19355.0,50,19350.0,19355.0,19350.0,19355.0,88,0,19355,20,19360,37
2017-01-11 08:22:00,08:22:07,08:22:59,7965,8174,19355.0,20,19360.0,54,19355.0,19370.0,19355.0,19370.0,142,18,19365,38,19370,44
2017-01-11 08:23:00,08:23:01,08:23:59,8180,8378,19365.0,43,19370.0,40,19370.0,19370.0,19360.0,19360.0,145,23,19355,44,19365,43
2017-01-11 08:24:00,08:24:00,08:24:59,8383,8593,19360.0,18,19365.0,42,19365.0,19375.0,19365.0,19370.0,164,-18,19365,62,19375,49
2017-01-11 08:25:00,08:25:00,08:25:59,8599,8738,19365.0,61,19370.0,5,19370.0,19370.0,19360.0,19360.0,147,58,19360,3,19365,47
2017-01-11 08:26:00,08:26:00,08:26:39,8742,8858,19355.0,42,19365.0,47,19360.0,19370.0,19360.0,19365.0,111,5,19365,26,19370,42
2017-01-11 08:27:00,08:27:01,08:27:55,8870,9028,19365.0,41,19370.0,40,19365.0,19365.0,19355.0,19355.0,217,-179,19350,36,19355,38
2017-01-11 08:28:00,08:28:00,08:28:30,9037,9102,19350.0,36,19355.0,42,19350.0,19350.0,19350.0,19350.0,59,3,19350,10,19355,67
2017-01-11 08:29:00,08:29:00,08:29:54,9134,9287,19350.0,54,19355.0,58,19350.0,19355.0,19350.0,19355.0,153,7,19355,8,19360,44
2017-01-11 08:30:00,08:30:16,08:30:55,9311,9409,19355.0,14,19360.0,39,19355.0,19360.0,19355.0,19355.0,66,10,19355,2,19360,43
2017-01-11 08:31:00,08:31:15,08:31:59,9425,9558,19355.0,18,19360.0,39,19355.0,19355.0,19345.0,19345.0,112,-74,19345,9,19350,44
2017-01-11 08:32:00,08:32:06,08:32:56,9565,9685,19345.0,19,19350.0,44,19345.0,19345.0,19340.0,19340.0,97,-45,19340,38,19345,26
2017-01-11 08:33:00,08:33:05,08:33:25,9692,9725,19340.0,38,19345.0,27,19345.0,19345.0,19345.0,19345.0,27,9,19340,38,19350,41
2017-01-11 08:34:00,08:34:24,08:34:59,9761,9907,19345.0,38,19350.0,39,19345.0,19350.0,19340.0,19345.0,176,14,19340,35,19345,6
2017-01-11 08:35:00,08:35:00,08:35:45,9912,9987,19340.0,36,19345.0,3,19345.0,19345.0,19340.0,19345.0,55,-21,19340,43,19345,43
2017-01-11 08:36:00,08:36:22,08:36:57,10001,10036,19340.0,45,19345.0,52,19345.0,19345.0,19340.0,19340.0,16,-2,19340,53,19345,50
2017-01-11 08:37:00,08:37:07,08:37:51,10044,10101,19340.0,49,19345.0,55,19340.0,19345.0,19340.0,19340.0,51,-40,19340,2,19345,68
2017-01-11 08:38:00,08:38:00,08:38:59,10115,10273,19340.0,16,19345.0,63,19340.0,19345.0,19340.0,19345.0,89,-33,19345,7,19350,71
2017-01-11 08:39:00,08:39:00,08:39:55,10278,10347,19345.0,10,19350.0,68,19345.0,19345.0,19335.0,19335.0,26,-24,19335,30,19340,30
2017-01-11 08:40:00,08:40:30,08:40:57,10378,10479,19335.0,26,19340.0,46,19335.0,19345.0,19335.0,19345.0,102,86,19340,40,19345,3
2017-01-11 08:41:00,08:41:04,08:41:57,10489,10618,19340.0,40,19345.0,1,19345.0,19345.0,19340.0,19345.0,90,20,19345,20,19350,30
2017-01-11 08:42:00,08:42:01,08:42:52,10628,10713,19345.0,21,19350.0,38,19345.0,19345.0,19340.0,19340.0,24,0,19340,31,19345,28
2017-01-11 08:43:00,08:43:02,08:43:59,10729,10913,19340.0,31,19345.0,30,19340.0,19345.0,19335.0,19340.0,111,7,19335,36,19340,7
2017-01-11 08:44:00,08:44:01,08:44:39,10918,11013,19335.0,36,19340.0,10,19340.0,19340.0,19335.0,19335.0,55,-7,19330,48,19340,43
2017-01-11 08:45:00,08:45:03,08:45:53,11049,11338,19335.0,29,19340.0,33,19340.0,19355.0,19340.0,19355.0,384,239,19355,32,19360,28
2017-01-11 08:46:00,08:46:03,08:46:09,11355,11398,19355.0,32,19360.0,41,19355.0,19355.0,19355.0,19355.0,36,-36,19355,23,19360,40
2017-01-11 08:47:00,08:47:19,08:47:43,11441,11500,19355.0,29,19360.0,41,19360.0,19360.0,19355.0,19355.0,42,-12,19355,26,19360,40
2017-01-11 08:48:00,08:48:26,08:48:56,11546,11618,19355.0,25,19360.0,37,19355.0,19355.0,19355.0,19355.0,47,-41,19355,31,19360,44
2017-01-11 08:49:00,08:49:16,08:49:57,11637,11667,19355.0,28,19360.0,45,19355.0,19355.0,19355.0,19355.0,3,-3,19355,34,19360,46
2017-01-11 08:50:00,08:50:03,08:50:58,11674,11863,19355.0,41,19360.0,41,19360.0,19360.0,19355.0,19360.0,387,-187,19355,53,19360,23
2017-01-11 08:51:00,08:51:08,08:51:58,11872,12050,19355.0,50,19360.0,25,19355.0,19365.0,19355.0,19360.0,137,-32,19360,3,19365,49
2017-01-11 08:52:00,08:52:04,08:52:55,12066,12182,19355.0,65,19360.0,3,19360.0,19360.0,19360.0,19360.0,67,-47,19360,9,19365,59
2017-01-11 08:53:00,08:53:20,08:53:46,12213,12318,19360.0,23,19365.0,58,19360.0,19360.0,19360.0,19360.0,102,-28,19360,46,19365,52
2017-01-11 08:54:00,08:54:00,08:54:56,12327,12401,19360.0,61,19365.0,55,19360.0,19360.0,19360.0,19360.0,73,-73,19360,38,19365,50
2017-01-11 08:55:00,08:55:00,08:55:48,12405,12508,19360.0,38,19365.0,47,19365.0,19365.0,19360.0,19360.0,131,3,19355,49,19360,45
2017-01-11 08:56:00,08:56:08,08:56:38,12535,12573,19355.0,57,19360.0,57,19355.0,19355.0,19355.0,19355.0,13,-13,19355,43,19360,56
2017-01-11 08:57:00,08:57:31,08:57:54,12607,12652,19355.0,72,19360.0,47,19360.0,19360.0,19355.0,19355.0,22,14,19355,64,19360,50
2017-01-11 08:58:00,08:58:23,08:58:52,12677,12764,19355.0,96,19360.0,33,19360.0,19365.0,19360.0,19365.0,60,60,19360,73,19365,32
2017-01-11 08:59:00,08:59:05,08:59:41,12772,12946,19360.0,72,19365.0,35,19360.0,19360.0,19360.0,19360.0,168,-82,19360,8,19365,53
2017-01-11 09:00:00,09:00:03,09:00:56,12971,13138,19360.0,21,19365.0,60,19360.0,19370.0,19360.0,19365.0,121,35,19360,68,19365,10
2017-01-11 09:01:00,09:01:02,09:01:59,13150,13283,19360.0,78,19365.0,10,19365.0,19370.0,19365.0,19365.0,92,10,19360,70,19370,43
2017-01-11 09:02:00,09:02:02,09:02:47,13293,13395,19365.0,10,19370.0,42,19370.0,19370.0,19365.0,19370.0,51,33,19365,40,19370,33
2017-01-11 09:03:00,09:03:03,09:03:54,13422,13592,19365.0,34,19370.0,44,19365.0,19370.0,19365.0,19365.0,176,54,19365,43,19370,53
2017-01-11 09:04:00,09:04:03,09:04:44,13599,13661,19365.0,43,19370.0,53,19370.0,19370.0,19365.0,19370.0,11,9,19365,52,19370,35
2017-01-11 09:05:00,09:05:00,09:05:43,13675,13731,19365.0,50,19370.0,37,19370.0,19370.0,19370.0,19370.0,29,29,19365,57,19370,48
2017-01-11 09:06:00,09:06:03,09:06:57,13746,13892,19365.0,58,19370.0,41,19370.0,19370.0,19360.0,19365.0,110,-22,19360,75,19365,19
2017-01-11 09:07:00,09:07:03,09:07:59,13902,14056,19360.0,75,19365.0,11,19365.0,19365.0,19355.0,19365.0,162,-116,19360,30,19365,41
2017-01-11 09:08:00,09:08:00,09:08:53,14059,14172,19360.0,30,19365.0,41,19365.0,19365.0,19360.0,19360.0,73,51,19360,35,19365,27
2017-01-11 09:09:00,09:09:00,09:09:34,14174,14234,19360.0,37,19365.0,27,19365.0,19365.0,19360.0,19360.0,36,8,19360,37,19365,39
2017-01-11 09:10:00,09:10:00,09:10:01,14253,14271,19360.0,40,19365.0,30,19360.0,19360.0,19360.0,19360.0,19,-19,19360,12,19365,77
2017-01-11 09:11:00,09:11:00,09:11:46,14300,14326,19360.0,53,19365.0,77,19365.0,19365.0,19360.0,19360.0,12,-6,19360,32,19365,66
2017-01-11 09:12:00,09:12:06,09:12:44,14342,14454,19360.0,35,19365.0,84,19365.0,19365.0,19360.0,19365.0,128,90,19360,59,19365,3
2017-01-11 09:13:00,09:13:00,09:13:52,14481,14620,19360.0,53,19365.0,22,19365.0,19370.0,19365.0,19370.0,133,-8,19365,54,19375,63
2017-01-11 09:14:00,09:14:00,09:14:30,14634,14752,19370.0,32,19375.0,61,19370.0,19375.0,19370.0,19370.0,96,12,19365,52,19370,41
2017-01-11 09:15:00,09:15:02,09:15:59,14777,14933,19365.0,51,19370.0,50,19365.0,19370.0,19365.0,19365.0,102,14,19360,72,19370,50
2017-01-11 09:16:00,09:16:58,09:16:58,14968,14969,19360.0,65,19365.0,30,19365.0,19365.0,19365.0,19365.0,4,4,19360,68,19365,27
2017-01-11 09:17:00,09:17:00,09:17:43,14972,15017,19360.0,65,19365.0,30,19365.0,19365.0,19360.0,19360.0,16,14,19360,65,19365,19
2017-01-11 09:18:00,09:18:00,09:18:59,15028,15190,19360.0,65,19365.0,21,19365.0,19365.0,19350.0,19355.0,151,-97,19355,28,19360,58
2017-01-11 09:19:00,09:19:30,09:19:41,15222,15246,19355.0,34,19360.0,56,19360.0,19360.0,19355.0,19355.0,2,0,19355,9,19360,63
2017-01-11 09:20:00,09:20:36,09:20:59,15337,15365,19355.0,37,19360.0,80,19355.0,19355.0,19355.0,19355.0,28,-28,19350,91,19355,6
2017-01-11 09:21:00,09:21:00,09:21:49,15369,15499,19350.0,91,19355.0,4,19355.0,19360.0,19350.0,19355.0,98,35,19350,101,19360,55
2017-01-11 09:22:00,09:22:02,09:22:41,15514,15572,19350.0,100,19360.0,55,19355.0,19360.0,19350.0,19350.0,19,8,19350,94,19355,26
2017-01-11 09:23:00,09:23:05,09:23:56,15589,15674,19350.0,88,19355.0,23,19355.0,19355.0,19350.0,19350.0,107,-71,19350,4,19355,55
2017-01-11 09:24:00,09:24:18,09:24:20,15712,15729,19345.0,35,19350.0,49,19345.0,19345.0,19345.0,19345.0,19,-19,19345,31,19350,45
2017-01-11 09:25:00,09:25:37,09:25:43,15833,15874,19345.0,36,19350.0,40,19350.0,19355.0,19350.0,19350.0,30,6,19350,22,19355,51
2017-01-11 09:26:00,09:26:00,09:26:00,0,0,0.0,0,0.0,0,19350.0,19350.0,19350.0,19350.0,0,0,0,0,0,0
2017-01-11 09:27:00,09:27:02,09:27:58,15926,16043,19350.0,27,19355.0,51,19350.0,19350.0,19345.0,19345.0,66,-36,19345,1,19350,53
2017-01-11 09:28:00,09:28:01,09:28:40,16047,16128,19345.0,3,19350.0,53,19345.0,19345.0,19345.0,19345.0,30,12,19345,29,19350,45
2017-01-11 09:29:00,09:29:48,09:29:50,16180,16206,19345.0,60,19350.0,27,19350.0,19350.0,19350.0,19350.0,40,8,19345,60,19350,28
2017-01-11 09:30:00,09:30:11,09:30:46,16240,16377,19345.0,61,19350.0,34,19345.0,19345.0,19345.0,19345.0,149,-107,19340,46,19345,21
2017-01-11 09:31:00,09:31:10,09:31:55,16406,16484,19340.0,35,19345.0,46,19340.0,19340.0,19340.0,19340.0,56,-56,19340,20,19345,44
2017-01-11 09:32:00,09:32:01,09:32:43,16490,16559,19340.0,46,19345.0,34,19340.0,19345.0,19340.0,19345.0,41,19,19340,46,19345,19
2017-01-11 09:33:00,09:33:35,09:33:40,16629,16658,19340.0,60,19345.0,15,19345.0,19345.0,19345.0,19345.0,33,15,19345,37,19350,52
2017-01-11 09:34:00,09:34:15,09:34:51,16696,16738,19345.0,36,19350.0,51,19345.0,19345.0,19345.0,19345.0,13,-13,19345,20,19350,64
2017-01-11 09:35:00,09:35:15,09:35:53,16750,16928,19345.0,29,19350.0,64,19350.0,19350.0,19350.0,19350.0,178,70,19345,44,19350,35
2017-01-11 09:36:00,09:36:47,09:36:56,16969,17018,19345.0,44,19350.0,30,19350.0,19350.0,19350.0,19350.0,53,21,19350,1,19355,54
2017-01-11 09:37:00,09:37:02,09:37:53,17027,17100,19350.0,6,19355.0,63,19350.0,19350.0,19345.0,19345.0,50,-26,19345,22,19350,36
2017-01-11 09:38:00,09:38:53,09:38:56,17138,17178,19345.0,42,19350.0,34,19350.0,19350.0,19350.0,19350.0,50,-32,19350,6,19355,48
2017-01-11 09:39:00,09:39:02,09:39:54,17184,17288,19350.0,11,19355.0,44,19350.0,19350.0,19350.0,19350.0,70,-37,19345,36,19350,16
2017-01-11 09:40:00,09:40:32,09:40:47,17319,17366,19345.0,14,19350.0,41,19345.0,19345.0,19345.0,19345.0,29,-3,19340,41,19345,31
2017-01-11 09:41:00,09:41:25,09:41:26,17391,17419,19340.0,39,19345.0,38,19345.0,19345.0,19345.0,19345.0,46,38,19340,40,19345,14
2017-01-11 09:42:00,09:42:16,09:42:51,17460,17556,19340.0,50,19345.0,31,19345.0,19345.0,19345.0,19345.0,65,57,19345,35,19350,49
2017-01-11 09:43:00,09:43:06,09:43:41,17564,17618,19345.0,33,19350.0,49,19345.0,19345.0,19345.0,19345.0,68,0,19345,1,19350,46
2017-01-11 09:44:00,09:44:20,09:44:49,17658,17723,19340.0,38,19345.0,21,19345.0,19345.0,19340.0,19340.0,49,9,19340,42,19345,10
2017-01-11 09:45:00,09:45:00,09:45:00,0,0,0.0,0,0.0,0,19340.0,19340.0,19340.0,19340.0,0,0,0,0,0,0
2017-01-11 09:46:00,09:46:32,09:46:38,17766,17769,19340.0,44,19345.0,20,19345.0,19345.0,19345.0,19345.0,2,2,19340,43,19345,17
2017-01-11 09:47:00,09:47:15,09:47:42,17806,17898,19340.0,48,19345.0,25,19345.0,19350.0,19345.0,19350.0,118,107,19345,41,19350,5
2017-01-11 09:48:00,09:48:36,09:48:59,17932,17992,19345.0,30,19350.0,40,19345.0,19345.0,19345.0,19345.0,58,-46,19340,41,19345,8
2017-01-11 09:49:00,09:49:01,09:49:54,17996,18064,19340.0,41,19345.0,10,19345.0,19345.0,19345.0,19345.0,55,42,19340,41,19345,1
2017-01-11 09:50:00,09:50:03,09:50:44,18078,18135,19340.0,43,19345.0,2,19345.0,19345.0,19340.0,19345.0,32,2,19345,40,19350,22
2017-01-11 09:51:00,09:51:04,09:51:40,18155,18328,19345.0,18,19350.0,40,19345.0,19345.0,19340.0,19340.0,178,-136,19340,54,19345,31
2017-01-11 09:52:00,09:52:34,09:52:34,18393,18398,19340.0,68,19345.0,21,19345.0,19345.0,19345.0,19345.0,6,6,19340,53,19345,16
2017-01-11 09:53:00,09:53:09,09:53:13,18418,18444,19340.0,54,19345.0,57,19340.0,19340.0,19340.0,19340.0,49,-49,19340,10,19345,55
2017-01-11 09:54:00,09:54:15,09:54:49,18505,18547,19340.0,46,19345.0,51,19340.0,19340.0,19340.0,19340.0,14,-14,19340,8,19345,104
2017-01-11 09:55:00,09:55:10,09:55:18,18566,18630,19340.0,18,19345.0,104,19345.0,19345.0,19345.0,19345.0,144,100,19340,41,19345,5
2017-01-11 09:56:00,09:56:07,09:56:53,18680,18706,19340.0,18,19345.0,50,19340.0,19345.0,19340.0,19345.0,8,-6,19340,33,19345,54
2017-01-11 09:57:00,09:57:20,09:57:52,18735,18867,19340.0,47,19345.0,24,19345.0,19355.0,19345.0,19350.0,161,-31,19350,28,19355,45
2017-01-11 09:58:00,09:58:15,09:58:56,18892,18979,19350.0,22,19355.0,43,19350.0,19355.0,19350.0,19355.0,63,25,19355,22,19355,11
2017-01-11 09:59:00,09:59:04,09:59:21,18990,19046,19350.0,48,19355.0,8,19355.0,19355.0,19355.0,19355.0,44,-33,19350,59,19355,7
2017-01-11 10:00:00,10:00:01,10:00:13,19070,19106,19350.0,57,19355.0,19,19355.0,19355.0,19350.0,19350.0,43,26,19350,54,19355,12
2017-01-11 10:01:00,10:01:12,10:01:18,19140,19190,19350.0,47,19355.0,38,19350.0,19350.0,19345.0,19345.0,61,-59,19345,62,19350,50
2017-01-11 10:02:00,10:02:33,10:02:53,19232,19240,19345.0,78,19350.0,58,19345.0,19350.0,19345.0,19350.0,2,0,19345,77,19350,56
2017-01-11 10:03:00,10:03:06,10:03:45,19246,19309,19345.0,78,19350.0,55,19350.0,19350.0,19345.0,19345.0,125,-123,19345,44,19350,62
2017-01-11 10:04:00,10:04:07,10:04:47,19326,19494,19345.0,49,19350.0,56,19345.0,19350.0,19340.0,19350.0,246,6,19350,13,19355,55
2017-01-11 10:05:00,10:05:31,10:05:58,19517,19666,19350.0,48,19355.0,44,19355.0,19365.0,19355.0,19360.0,227,43,19355,58,19365,49
2017-01-11 10:06:00,10:06:10,10:06:26,19682,19724,19360.0,42,19365.0,43,19360.0,19360.0,19360.0,19360.0,59,-59,19360,21,19365,45
2017-01-11 10:07:00,10:07:08,10:07:47,19771,19861,19360.0,38,19365.0,43,19360.0,19360.0,19360.0,19360.0,64,-26,19355,46,19360,21
2017-01-11 10:08:00,10:08:00,10:08:50,19882,19940,19355.0,34,19360.0,42,19360.0,19360.0,19350.0,19350.0,21,-3,19350,51,19355,14
2017-01-11 10:09:00,10:09:11,10:09:57,19966,20103,19350.0,28,19355.0,37,19355.0,19355.0,19350.0,19350.0,114,-68,19345,94,19355,59
2017-01-11 10:10:00,10:10:17,10:10:58,20119,20240,19350.0,9,19355.0,59,19350.0,19350.0,19350.0,19350.0,94,-4,19350,2,19355,69
2017-01-11 10:11:00,10:11:00,10:11:59,20241,20474,19345.0,88,19350.0,1,19350.0,19360.0,19350.0,19355.0,217,-39,19350,40,19355,8
2017-01-11 10:12:00,10:12:00,10:12:57,20477,20632,19350.0,40,19355.0,8,19355.0,19355.0,19345.0,19345.0,173,-43,19345,54,19350,45
2017-01-11 10:13:00,10:13:03,10:13:18,20644,20670,19345.0,63,19350.0,16,19350.0,19350.0,19345.0,19345.0,36,-34,19345,6,19350,49
2017-01-11 10:14:00,10:14:03,10:14:55,20721,21276,19345.0,39,19350.0,44,19350.0,19375.0,19350.0,19375.0,939,533,19370,48,19375,42
2017-01-11 10:15:00,10:15:04,10:15:52,21283,21395,19370.0,43,19375.0,44,19375.0,19375.0,19365.0,19365.0,90,-76,19365,8,19370,54
2017-01-11 10:16:00,10:16:45,10:16:51,21439,21510,19365.0,43,19370.0,50,19370.0,19375.0,19370.0,19375.0,128,112,19370,65,19375,1
2017-01-11 10:17:00,10:17:09,10:17:44,21543,21609,19370.0,77,19375.0,15,19375.0,19380.0,19375.0,19375.0,49,17,19375,12,19380,35
2017-01-11 10:18:00,10:18:08,10:18:54,21623,21679,19375.0,37,19380.0,55,19380.0,19380.0,19375.0,19380.0,23,13,19375,43,19380,11
2017-01-11 10:19:00,10:19:15,10:19:42,21705,21837,19375.0,36,19380.0,36,19380.0,19380.0,19380.0,19380.0,160,84,19380,15,19385,81
2017-01-11 10:20:00,10:20:12,10:20:49,21863,22024,19380.0,52,19385.0,69,19380.0,19390.0,19375.0,19390.0,238,-62,19385,85,19390,41
2017-01-11 10:21:00,10:21:07,10:21:53,22039,22161,19385.0,76,19390.0,38,19390.0,19390.0,19385.0,19385.0,142,-82,19380,56,19385,23
2017-01-11 10:22:00,10:22:05,10:22:52,22173,22280,19380.0,51,19385.0,32,19385.0,19385.0,19380.0,19380.0,100,-6,19375,53,19385,54
2017-01-11 10:23:00,10:23:33,10:23:52,22333,22396,19375.0,47,19380.0,45,19380.0,19380.0,19380.0,19380.0,40,22,19375,57,19380,11
2017-01-11 10:24:00,10:24:05,10:24:57,22417,22537,19375.0,41,19380.0,47,19375.0,19380.0,19375.0,19380.0,83,-15,19375,40,19380,25
2017-01-11 10:25:00,10:25:06,10:25:59,22546,22714,19375.0,48,19380.0,22,19380.0,19385.0,19375.0,19375.0,95,-67,19370,47,19375,6
2017-01-11 10:26:00,10:26:00,10:26:59,22718,22810,19370.0,47,19375.0,23,19375.0,19375.0,19370.0,19370.0,68,-28,19370,17,19375,58
2017-01-11 10:27:00,10:27:03,10:27:57,22817,23005,19370.0,22,19375.0,56,19375.0,19380.0,19370.0,19370.0,187,-13,19370,5,19375,39
2017-01-11 10:28:00,10:28:00,10:28:59,23010,23145,19370.0,6,19375.0,35,19375.0,19380.0,19375.0,19375.0,131,21,19370,49,19375,36
2017-01-11 10:29:00,10:29:07,10:29:58,23155,23475,19370.0,50,19375.0,46,19370.0,19370.0,19355.0,19355.0,530,-396,19355,27,19360,31
2017-01-11 10:30:00,10:30:00,10:30:22,23480,23541,19355.0,35,19360.0,15,19360.0,19360.0,19355.0,19355.0,30,-16,19355,11,19360,42
2017-01-11 10:31:00,10:31:12,10:31:32,23580,23639,19355.0,47,19360.0,26,19360.0,19360.0,19360.0,19360.0,57,31,19355,38,19360,12
2017-01-11 10:32:00,10:32:16,10:32:50,23665,23733,19355.0,40,19360.0,16,19360.0,19360.0,19360.0,19360.0,65,13,19360,5,19365,34
2017-01-11 10:33:00,10:33:36,10:33:36,23758,23758,19360.0,36,19365.0,51,19365.0,19365.0,19365.0,19365.0,1,1,19360,33,19365,53
2017-01-11 10:34:00,10:34:00,10:34:00,0,0,0.0,0,0.0,0,19365.0,19365.0,19365.0,19365.0,0,0,0,0,0,0
2017-01-11 10:35:00,10:35:29,10:35:30,23788,23804,19360.0,44,19365.0,37,19365.0,19365.0,19365.0,19365.0,26,26,19365,13,19370,50
2017-01-11 10:36:00,10:36:02,10:36:50,23831,23882,19365.0,48,19370.0,55,19370.0,19370.0,19370.0,19370.0,55,39,19370,9,19375,54
2017-01-11 10:37:00,10:37:00,10:37:59,23896,24019,19370.0,22,19375.0,53,19370.0,19375.0,19370.0,19375.0,103,59,19375,7,19380,43
2017-01-11 10:38:00,10:38:58,10:38:58,24073,24073,19375.0,34,19380.0,37,19380.0,19380.0,19380.0,19380.0,1,1,19375,35,19380,39
2017-01-11 10:39:00,10:39:00,10:39:58,24077,24205,19375.0,34,19380.0,38,19380.0,19380.0,19380.0,19380.0,81,59,19375,47,19385,48
2017-01-11 10:40:00,10:40:00,10:40:55,24212,24292,19375.0,47,19380.0,4,19380.0,19385.0,19380.0,19380.0,37,-25,19380,30,19385,36
2017-01-11 10:41:00,10:41:39,10:41:39,24316,24322,19380.0,59,19385.0,13,19385.0,19385.0,19385.0,19385.0,8,8,19380,50,19385,9
2017-01-11 10:42:00,10:42:06,10:42:38,24350,24421,19380.0,58,19385.0,25,19380.0,19380.0,19375.0,19375.0,89,-89,19375,6,19380,48
2017-01-11 10:43:00,10:43:29,10:43:54,24437,24516,19375.0,18,19380.0,64,19375.0,19375.0,19365.0,19365.0,100,-100,19365,6,19370,44
2017-01-11 10:44:00,10:44:08,10:44:08,24531,24532,19365.0,27,19370.0,45,19365.0,19365.0,19365.0,19365.0,2,-2,19365,21,19370,46
2017-01-11 10:45:00,10:45:00,10:45:00,0,0,0.0,0,0.0,0,19365.0,19365.0,19365.0,19365.0,0,0,0,0,0,0
2017-01-11 10:46:00,10:46:21,10:46:33,24590,24627,19365.0,43,19370.0,38,19365.0,19365.0,19365.0,19365.0,47,-11,19365,12,19370,43
2017-01-11 10:47:00,10:47:03,10:47:37,24642,24783,19365.0,22,19370.0,39,19370.0,19370.0,19365.0,19365.0,164,76,19365,6,19370,45
2017-01-11 10:48:00,10:48:31,10:48:45,24799,24832,19365.0,21,19370.0,45,19365.0,19365.0,19365.0,19365.0,33,-21,19365,5,19370,44
2017-01-11 10:49:00,10:49:01,10:49:57,24838,24914,19365.0,2,19370.0,44,19365.0,19370.0,19365.0,19370.0,53,47,19365,29,19370,38
2017-01-11 10:50:00,10:50:02,10:50:58,24921,24969,19365.0,37,19370.0,29,19370.0,19370.0,19365.0,19365.0,30,28,19365,38,19370,12
2017-01-11 10:51:00,10:51:04,10:51:37,24976,25010,19365.0,38,19370.0,28,19370.0,19370.0,19370.0,19370.0,26,26,19365,46,19370,5
2017-01-11 10:52:00,10:52:17,10:52:38,25032,25051,19365.0,42,19370.0,22,19370.0,19370.0,19370.0,19370.0,8,8,19365,44,19370,10
2017-01-11 10:53:00,10:53:42,10:53:58,25068,25145,19365.0,37,19370.0,28,19370.0,19370.0,19355.0,19360.0,75,-25,19355,37,19360,3
2017-01-11 10:54:00,10:54:01,10:54:16,25151,25189,19355.0,32,19360.0,19,19360.0,19360.0,19355.0,19360.0,25,11,19355,42,19360,8
2017-01-11 10:55:00,10:55:07,10:55:54,25220,25325,19355.0,48,19360.0,20,19355.0,19360.0,19350.0,19350.0,87,-49,19350,45,19355,78
2017-01-11 10:56:00,10:56:07,10:56:52,25333,25402,19350.0,53,19355.0,77,19350.0,19355.0,19350.0,19355.0,87,-37,19350,70,19355,3
2017-01-11 10:57:00,10:57:01,10:57:44,25408,25436,19350.0,58,19355.0,3,19355.0,19360.0,19355.0,19360.0,6,6,19355,16,19355,34
2017-01-11 10:58:00,10:58:21,10:58:55,25442,25483,19355.0,24,19360.0,39,19355.0,19355.0,19355.0,19355.0,36,-12,19350,48,19355,12
2017-01-11 10:59:00,10:59:03,10:59:53,25488,25546,19350.0,48,19355.0,10,19355.0,19360.0,19355.0,19360.0,33,11,19355,8,19360,42
2017-01-11 11:00:00,11:00:07,11:00:52,25567,25611,19355.0,8,19360.0,40,19355.0,19355.0,19350.0,19355.0,20,-8,19350,51,19355,13
2017-01-11 11:01:00,11:01:19,11:01:30,25632,25678,19350.0,53,19355.0,56,19350.0,19355.0,19345.0,19350.0,68,-32,19350,29,19355,33
2017-01-11 11:02:00,11:02:05,11:02:30,25704,25752,19350.0,30,19355.0,38,19350.0,19355.0,19350.0,19355.0,54,36,19350,39,19355,21
2017-01-11 11:03:00,11:03:05,11:03:20,25773,25813,19355.0,8,19360.0,50,19355.0,19360.0,19355.0,19360.0,22,6,19355,17,19360,49
2017-01-11 11:04:00,11:04:15,11:04:38,25837,25881,19355.0,30,19360.0,48,19360.0,19360.0,19360.0,19360.0,52,46,19360,3,19365,48
2017-01-11 11:05:00,11:05:34,11:05:53,25918,26026,19360.0,51,19365.0,32,19365.0,19370.0,19365.0,19365.0,141,103,19365,1,19370,44
2017-01-11 11:06:00,11:06:56,11:06:56,26045,26045,19365.0,35,19370.0,38,19370.0,19370.0,19370.0,19370.0,1,1,19365,37,19370,37
2017-01-11 11:07:00,11:07:38,11:07:38,26073,26073,19365.0,33,19370.0,39,19370.0,19370.0,19370.0,19370.0,1,1,19365,34,19370,33
2017-01-11 11:08:00,11:08:47,11:08:47,26096,26096,19365.0,42,19370.0,35,19370.0,19370.0,19370.0,19370.0,1,1,19365,41,19370,34
2017-01-11 11:09:00,11:09:35,11:09:56,26113,26125,19365.0,50,19370.0,35,19370.0,19370.0,19370.0,19370.0,4,4,19365,49,19370,34
2017-01-11 11:10:00,11:10:01,11:10:56,26130,26164,19365.0,49,19370.0,34,19370.0,19370.0,19365.0,19370.0,6,4,19365,41,19370,33
2017-01-11 11:11:00,11:11:09,11:11:15,26169,26233,19365.0,42,19370.0,34,19370.0,19370.0,19370.0,19370.0,71,-11,19370,6,19375,50
2017-01-11 11:12:00,11:12:52,11:12:58,26284,26289,19370.0,44,19375.0,27,19375.0,19375.0,19375.0,19375.0,5,5,19370,42,19375,22
2017-01-11 11:13:00,11:13:01,11:13:04,26294,26301,19370.0,40,19375.0,26,19375.0,19375.0,19375.0,19375.0,4,4,19370,41,19375,22
2017-01-11 11:14:00,11:14:16,11:14:56,26332,26407,19370.0,36,19375.0,34,19370.0,19375.0,19370.0,19375.0,44,-2,19370,44,19375,29
2017-01-11 11:15:00,11:15:15,11:15:44,26414,26480,19370.0,44,19375.0,28,19375.0,19375.0,19375.0,19375.0,68,68,19370,43,19375,8
2017-01-11 11:16:00,11:16:07,11:16:20,26493,26511,19370.0,45,19375.0,3,19375.0,19375.0,19375.0,19375.0,13,-11,19370,47,19375,5
2017-01-11 11:17:00,11:17:40,11:17:40,26551,26562,19370.0,37,19375.0,32,19370.0,19370.0,19370.0,19370.0,24,-24,19370,19,19375,27
2017-01-11 11:18:00,11:18:18,11:18:32,26585,26616,19370.0,26,19375.0,34,19370.0,19375.0,19370.0,19375.0,25,-23,19370,18,19375,30
2017-01-11 11:19:00,11:19:32,11:19:48,26632,26692,19370.0,34,19375.0,26,19370.0,19375.0,19370.0,19375.0,84,52,19370,36,19375,13
2017-01-11 11:20:00,11:20:07,11:20:53,26698,26760,19370.0,52,19375.0,12,19375.0,19375.0,19375.0,19375.0,96,-44,19370,42,19375,12
2017-01-11 11:21:00,11:21:04,11:21:15,26764,26791,19370.0,43,19375.0,12,19375.0,19380.0,19370.0,19370.0,22,6,19370,38,19375,17
2017-01-11 11:22:00,11:22:43,11:22:43,26833,26833,19370.0,40,19375.0,27,19375.0,19375.0,19375.0,19375.0,1,1,19370,39,19375,25
2017-01-11 11:23:00,11:23:36,11:23:36,26866,26866,19370.0,56,19375.0,32,19375.0,19375.0,19375.0,19375.0,1,1,19370,57,19375,30
2017-01-11 11:24:00,11:24:10,11:24:58,26880,27062,19370.0,35,19375.0,39,19370.0,19375.0,19365.0,19365.0,232,-162,19360,55,19365,11
2017-01-11 11:25:00,11:25:00,11:25:51,27070,27129,19360.0,55,19365.0,17,19360.0,19365.0,19360.0,19365.0,32,20,19360,48,19365,21
2017-01-11 11:26:00,11:26:06,11:26:49,27137,27244,19360.0,47,19365.0,29,19360.0,19365.0,19360.0,19360.0,101,-79,19355,44,19365,40
2017-01-11 11:27:00,11:27:20,11:27:20,27266,27280,19355.0,35,19360.0,42,19355.0,19355.0,19355.0,19355.0,35,-35,19350,30,19355,25
2017-01-11 11:28:00,11:28:00,11:28:00,0,0,0.0,0,0.0,0,19355.0,19355.0,19355.0,19355.0,0,0,0,0,0,0
2017-01-11 11:29:00,11:29:12,11:29:51,27307,27418,19350.0,30,19355.0,41,19350.0,19355.0,19350.0,19355.0,115,-25,19350,13,19355,45
2017-01-11 11:30:00,11:30:00,11:30:53,27429,27628,19350.0,13,19355.0,51,19355.0,19360.0,19350.0,19360.0,192,84,19355,22,19360,35
2017-01-11 11:31:00,11:31:00,11:31:00,0,0,0.0,0,0.0,0,19360.0,19360.0,19360.0,19360.0,0,0,0,0,0,0
2017-01-11 11:32:00,11:32:32,11:32:34,27727,27759,19355.0,31,19360.0,28,19360.0,19360.0,19360.0,19360.0,45,45,19360,35,19365,37
2017-01-11 11:33:00,11:33:20,11:33:55,27809,28017,19360.0,46,19365.0,34,19365.0,19365.0,19360.0,19360.0,279,-181,19360,2,19365,44
2017-01-11 11:34:00,11:34:06,11:34:58,28027,28135,19360.0,44,19365.0,28,19365.0,19365.0,19360.0,19365.0,99,-45,19360,44,19365,11
2017-01-11 11:35:00,11:35:32,11:35:49,28161,28233,19360.0,45,19365.0,25,19360.0,19360.0,19355.0,19355.0,71,-67,19355,1,19360,36
2017-01-11 11:36:00,11:36:07,11:36:53,28251,28410,19355.0,31,19360.0,22,19360.0,19360.0,19355.0,19360.0,138,98,19355,43,19360,8
2017-01-11 11:37:00,11:37:34,11:37:34,28449,28454,19355.0,45,19360.0,25,19360.0,19360.0,19360.0,19360.0,14,14,19355,46,19360,10
2017-01-11 11:38:00,11:38:03,11:38:17,28476,28541,19355.0,45,19360.0,26,19360.0,19360.0,19360.0,19360.0,55,39,19355,42,19360,17
2017-01-11 11:39:00,11:39:06,11:39:53,28578,28683,19355.0,42,19360.0,26,19360.0,19365.0,19360.0,19365.0,133,59,19360,30,19365,16
2017-01-11 11:40:00,11:40:25,11:40:51,28714,28735,19360.0,42,19365.0,14,19365.0,19365.0,19365.0,19365.0,15,13,19360,41,19370,47
2017-01-11 11:41:00,11:41:03,11:41:39,28744,28850,19360.0,47,19365.0,1,19365.0,19365.0,19360.0,19360.0,99,-88,19360,9,19365,45
2017-01-11 11:42:00,11:42:17,11:42:55,28874,28916,19360.0,17,19365.0,38,19360.0,19360.0,19355.0,19355.0,25,-17,19355,39,19360,21
2017-01-11 11:43:00,11:43:20,11:43:22,28940,28949,19355.0,39,19360.0,16,19360.0,19360.0,19360.0,19360.0,11,11,19360,24,19365,25
2017-01-11 11:44:00,11:44:06,11:44:44,28986,29053,19360.0,26,19365.0,28,19365.0,19365.0,19360.0,19360.0,72,-44,19355,39,19360,4
2017-01-11 11:45:00,11:45:00,11:45:52,29062,29097,19355.0,33,19360.0,10,19360.0,19360.0,19360.0,19360.0,12,12,19355,29,19360,14
2017-01-11 11:46:00,11:46:03,11:46:46,29109,29177,19355.0,36,19360.0,10,19360.0,19360.0,19360.0,19360.0,38,2,19355,38,19365,37
2017-01-11 11:47:00,11:47:06,11:47:55,29188,29249,19355.0,33,19360.0,4,19360.0,19365.0,19360.0,19365.0,26,10,19360,44,19365,9
2017-01-11 11:48:00,11:48:03,11:48:21,29259,29296,19360.0,52,19365.0,23,19360.0,19360.0,19360.0,19360.0,46,-46,19355,49,19360,6
2017-01-11 11:49:00,11:49:42,11:49:52,29336,29361,19355.0,32,19360.0,38,19355.0,19355.0,19355.0,19355.0,13,-7,19350,55,19360,53
2017-01-11 11:50:00,11:50:02,11:50:55,29372,29401,19350.0,54,19355.0,1,19355.0,19360.0,19355.0,19360.0,11,11,19355,19,19360,50
2017-01-11 11:51:00,11:51:40,11:51:56,29425,29476,19355.0,33,19360.0,24,19360.0,19360.0,19355.0,19355.0,41,39,19355,39,19360,35
2017-01-11 11:52:00,11:52:06,11:52:47,29482,29502,19355.0,38,19360.0,38,19355.0,19355.0,19355.0,19355.0,2,-2,19355,39,19360,29
2017-01-11 11:53:00,11:53:22,11:53:37,29526,29563,19355.0,43,19360.0,36,19360.0,19360.0,19355.0,19355.0,45,-1,19350,46,19355,16
2017-01-11 11:54:00,11:54:18,11:54:58,29589,29746,19350.0,41,19355.0,23,19350.0,19350.0,19345.0,19345.0,161,-119,19340,45,19345,1
2017-01-11 11:55:00,11:55:10,11:55:26,29759,29782,19340.0,44,19345.0,4,19345.0,19350.0,19345.0,19350.0,8,4,19345,23,19350,71
2017-01-11 11:56:00,11:56:00,11:56:00,0,0,0.0,0,0.0,0,19350.0,19350.0,19350.0,19350.0,0,0,0,0,0,0
2017-01-11 11:57:00,11:57:13,11:57:23,29857,29899,19345.0,39,19350.0,45,19345.0,19345.0,19345.0,19345.0,46,-46,19345,7,19350,46
2017-01-11 11:58:00,11:58:00,11:58:52,29917,30002,19345.0,43,19350.0,45,19350.0,19355.0,19350.0,19355.0,74,70,19350,58,19360,47
2017-01-11 11:59:00,11:59:10,11:59:59,30015,30083,19350.0,58,19355.0,31,19355.0,19355.0,19355.0,19355.0,57,13,19350,57,19355,9
2017-01-11 12:00:00,12:00:00,12:00:00,0,0,0.0,0,0.0,0,19355.0,19355.0,19355.0,19355.0,0,0,0,0,0,0
2017-01-11 12:01:00,12:01:02,12:01:59,30124,30235,19350.0,53,19355.0,36,19355.0,19355.0,19350.0,19350.0,124,-37,19350,2,19355,49
2017-01-11 12:02:00,12:02:19,12:02:24,30252,30286,19350.0,40,19355.0,28,19355.0,19355.0,19355.0,19355.0,33,29,19350,44,19360,48
2017-01-11 12:03:00,12:03:30,12:03:30,30312,30317,19355.0,34,19360.0,39,19360.0,19360.0,19360.0,19360.0,5,5,19355,32,19360,37
2017-01-11 12:04:00,12:04:00,12:04:00,0,0,0.0,0,0.0,0,19360.0,19360.0,19360.0,19360.0,0,0,0,0,0,0
2017-01-11 12:05:00,12:05:19,12:05:48,30355,30530,19355.0,43,19360.0,44,19360.0,19360.0,19360.0,19360.0,194,52,19355,38,19360,17
2017-01-11 12:06:00,12:06:19,12:06:45,30552,30588,19355.0,37,19360.0,37,19360.0,19360.0,19360.0,19360.0,25,25,19355,44,19360,6
2017-01-11 12:07:00,12:07:00,12:07:22,30596,30645,19355.0,46,19360.0,8,19360.0,19360.0,19360.0,19360.0,21,1,19355,39,19360,7
2017-01-11 12:08:00,12:08:35,12:08:35,30680,30681,19355.0,47,19360.0,43,19360.0,19360.0,19360.0,19360.0,3,3,19355,44,19360,40
2017-01-11 12:09:00,12:09:00,12:09:00,0,0,0.0,0,0.0,0,19360.0,19360.0,19360.0,19360.0,0,0,0,0,0,0
2017-01-11 12:10:00,12:10:06,12:10:50,30713,30877,19355.0,62,19360.0,43,19360.0,19365.0,19360.0,19365.0,124,-1,19360,43,19370,44
2017-01-11 12:11:00,12:11:35,12:11:35,30908,30924,19360.0,30,19365.0,36,19360.0,19360.0,19360.0,19360.0,20,-7,19360,13,19365,38
2017-01-11 12:12:00,12:12:04,12:12:57,30945,31010,19360.0,18,19365.0,40,19360.0,19360.0,19360.0,19360.0,53,-9,19355,42,19360,9
2017-01-11 12:13:00,12:13:19,12:13:41,31020,31051,19355.0,42,19360.0,27,19355.0,19360.0,19355.0,19360.0,22,2,19355,60,19360,6
2017-01-11 12:14:00,12:14:01,12:14:07,31063,31081,19355.0,60,19360.0,7,19360.0,19360.0,19360.0,19360.0,14,12,19355,45,19360,17
2017-01-11 12:15:00,12:15:00,12:15:00,0,0,0.0,0,0.0,0,19360.0,19360.0,19360.0,19360.0,0,0,0,0,0,0
2017-01-11 12:16:00,12:16:00,12:16:36,31163,31203,19355.0,41,19360.0,33,19360.0,19360.0,19355.0,19355.0,20,-12,19350,43,19355,24
2017-01-11 12:17:00,12:17:35,12:17:36,31235,31269,19350.0,38,19355.0,32,19350.0,19350.0,19350.0,19350.0,47,-7,19350,29,19355,35
2017-01-11 12:18:00,12:18:40,12:18:40,31317,31318,19350.0,49,19355.0,33,19355.0,19355.0,19355.0,19355.0,3,3,19350,46,19355,31
2017-01-11 12:19:00,12:19:22,12:19:53,31339,31409,19350.0,47,19355.0,26,19355.0,19355.0,19355.0,19355.0,63,-9,19350,43,19355,8
2017-01-11 12:20:00,12:20:00,12:20:27,31416,31470,19350.0,43,19355.0,8,19350.0,19355.0,19350.0,19355.0,31,17,19350,46,19355,5
2017-01-11 12:21:00,12:21:34,12:21:48,31508,31573,19350.0,38,19355.0,36,19350.0,19350.0,19350.0,19350.0,84,-22,19345,148,19350,32
2017-01-11 12:22:00,12:22:04,12:22:07,31584,31619,19345.0,147,19350.0,45,19350.0,19350.0,19350.0,19350.0,65,65,19345,150,19350,18
2017-01-11 12:23:00,12:23:44,12:23:44,31663,31664,19345.0,149,19350.0,56,19350.0,19350.0,19350.0,19350.0,3,3,19345,146,19350,53
2017-01-11 12:24:00,12:24:10,12:24:54,31686,31722,19345.0,145,19350.0,78,19345.0,19350.0,19345.0,19350.0,20,8,19345,149,19350,42
2017-01-11 12:25:00,12:25:00,12:25:46,31729,31805,19345.0,146,19350.0,43,19350.0,19350.0,19350.0,19350.0,63,27,19345,150,19350,8
2017-01-11 12:26:00,12:26:24,12:26:57,31828,31877,19345.0,144,19350.0,39,19350.0,19350.0,19345.0,19350.0,38,34,19345,155,19350,2
2017-01-11 12:27:00,12:27:04,12:27:44,31886,31930,19345.0,156,19350.0,2,19350.0,19350.0,19345.0,19345.0,63,-43,19345,79,19350,62
2017-01-11 12:28:00,12:28:00,12:28:48,31937,31947,19345.0,80,19350.0,69,19345.0,19350.0,19345.0,19350.0,8,-2,19345,79,19350,58
2017-01-11 12:29:00,12:29:37,12:29:54,31960,31985,19345.0,78,19350.0,55,19350.0,19350.0,19350.0,19350.0,40,40,19345,90,19350,7
2017-01-11 12:30:00,12:30:36,12:30:59,32011,32074,19345.0,93,19350.0,7,19350.0,19350.0,19350.0,19350.0,43,-13,19345,86,19350,21
2017-01-11 12:31:00,12:31:06,12:31:51,32082,32164,19345.0,86,19350.0,14,19350.0,19350.0,19350.0,19350.0,61,-17,19345,97,19355,55
2017-01-11 12:32:00,12:32:20,12:32:57,32194,32226,19345.0,101,19350.0,18,19350.0,19350.0,19350.0,19350.0,9,9,19350,3,19355,55
2017-01-11 12:33:00,12:33:01,12:33:11,32231,32263,19350.0,8,19355.0,55,19350.0,19350.0,19350.0,19350.0,38,-38,19345,97,19350,6
2017-01-11 12:34:00,12:34:00,12:34:00,0,0,0.0,0,0.0,0,19350.0,19350.0,19350.0,19350.0,0,0,0,0,0,0
2017-01-11 12:35:00,12:35:11,12:35:54,32330,32347,19350.0,41,19355.0,41,19355.0,19355.0,19355.0,19355.0,5,5,19350,43,19355,43
2017-01-11 12:36:00,12:36:04,12:36:47,32354,32378,19350.0,46,19355.0,46,19355.0,19355.0,19355.0,19355.0,9,9,19350,44,19355,41
2017-01-11 12:37:00,12:37:08,12:37:45,32386,32423,19350.0,45,19355.0,40,19355.0,19355.0,19350.0,19350.0,35,-27,19345,82,19350,40
2017-01-11 12:38:00,12:38:46,12:38:47,32461,32476,19345.0,103,19350.0,28,19350.0,19350.0,19350.0,19350.0,36,14,19345,91,19350,17
2017-01-11 12:39:00,12:39:40,12:39:59,32511,32578,19345.0,87,19350.0,60,19345.0,19345.0,19340.0,19340.0,120,-62,19340,42,19345,2
2017-01-11 12:40:00,12:40:08,12:40:52,32589,32661,19340.0,76,19345.0,11,19345.0,19345.0,19340.0,19345.0,29,25,19340,78,19345,20
2017-01-11 12:41:00,12:41:29,12:41:29,32686,32705,19340.0,82,19345.0,36,19340.0,19340.0,19340.0,19340.0,45,-45,19340,19,19345,56
2017-01-11 12:42:00,12:42:07,12:42:55,32723,32842,19340.0,35,19345.0,42,19345.0,19345.0,19340.0,19345.0,113,25,19340,54,19345,10
2017-01-11 12:43:00,12:43:02,12:43:55,32853,32920,19340.0,60,19345.0,26,19345.0,19345.0,19345.0,19345.0,42,42,19345,2,19350,49
2017-01-11 12:44:00,12:44:03,12:44:54,32928,33015,19340.0,62,19345.0,17,19345.0,19350.0,19345.0,19350.0,53,9,19345,47,19350,42
2017-01-11 12:45:00,12:45:04,12:45:45,33020,33066,19345.0,47,19350.0,42,19350.0,19350.0,19350.0,19350.0,7,7,19345,49,19350,43
2017-01-11 12:46:00,12:46:15,12:46:56,33081,33116,19345.0,52,19350.0,41,19350.0,19350.0,19350.0,19350.0,14,14,19345,51,19350,40
2017-01-11 12:47:00,12:47:06,12:47:58,33123,33317,19345.0,52,19350.0,37,19350.0,19355.0,19345.0,19345.0,280,114,19345,38,19350,38
2017-01-11 12:48:00,12:48:03,12:48:47,33329,33431,19345.0,39,19350.0,36,19345.0,19350.0,19345.0,19345.0,104,-68,19340,49,19345,3
2017-01-11 12:49:00,12:49:00,12:49:59,33445,33529,19345.0,1,19350.0,59,19345.0,19350.0,19345.0,19350.0,60,58,19345,80,19350,8
2017-01-11 12:50:00,12:50:33,12:50:39,33538,33564,19345.0,84,19350.0,21,19350.0,19350.0,19350.0,19350.0,70,70,19345,47,19350,12
2017-01-11 12:51:00,12:51:07,12:51:47,33577,33604,19345.0,52,19350.0,29,19350.0,19350.0,19350.0,19350.0,16,16,19345,43,19350,30
2017-01-11 12:52:00,12:52:17,12:52:50,33616,33631,19345.0,45,19350.0,41,19350.0,19350.0,19345.0,19345.0,9,7,19345,41,19350,47
2017-01-11 12:53:00,12:53:01,12:53:58,33634,33753,19345.0,41,19350.0,47,19345.0,19345.0,19335.0,19340.0,119,-69,19335,61,19340,6
2017-01-11 12:54:00,12:54:39,12:54:50,33773,33811,19335.0,78,19340.0,26,19340.0,19345.0,19340.0,19340.0,65,19,19335,77,19340,20
2017-01-11 12:55:00,12:55:15,12:55:16,33819,33823,19335.0,77,19340.0,1,19340.0,19340.0,19340.0,19340.0,2,0,19340,5,19345,61
2017-01-11 12:56:00,12:56:01,12:56:43,33864,33980,19340.0,53,19345.0,51,19345.0,19350.0,19340.0,19340.0,125,-23,19340,41,19345,49
2017-01-11 12:57:00,12:57:59,12:57:59,34022,34022,19340.0,69,19345.0,26,19345.0,19345.0,19345.0,19345.0,2,2,19340,73,19345,23
2017-01-11 12:58:00,12:58:04,12:58:43,34031,34120,19340.0,73,19345.0,20,19345.0,19345.0,19345.0,19345.0,83,-9,19345,3,19350,60
2017-01-11 12:59:00,12:59:03,12:59:57,34139,34224,19345.0,19,19350.0,51,19345.0,19350.0,19345.0,19350.0,56,-46,19345,31,19350,39
2017-01-11 13:00:00,13:00:00,13:00:00,0,0,0.0,0,0.0,0,19350.0,19350.0,19350.0,19350.0,0,0,0,0,0,0
2017-01-11 13:01:00,13:01:01,13:01:41,34262,34363,19345.0,53,19350.0,60,19350.0,19350.0,19350.0,19350.0,142,-30,19350,3,19355,72
2017-01-11 13:02:00,13:02:20,13:02:20,34401,34414,19350.0,17,19355.0,73,19350.0,19350.0,19350.0,19350.0,17,-17,19345,52,19350,25
2017-01-11 13:03:00,13:03:36,13:03:51,34463,34526,19345.0,45,19350.0,51,19345.0,19350.0,19345.0,19350.0,81,-79,19345,20,19350,45
2017-01-11 13:04:00,13:04:31,13:04:35,34542,34563,19345.0,11,19350.0,51,19345.0,19345.0,19345.0,19345.0,26,-10,19345,5,19350,57
2017-01-11 13:05:00,13:05:04,13:05:47,34593,34625,19345.0,14,19350.0,51,19345.0,19350.0,19345.0,19350.0,16,8,19345,39,19350,27
2017-01-11 13:06:00,13:06:08,13:06:36,34643,34690,19345.0,26,19350.0,45,19350.0,19350.0,19345.0,19345.0,30,-14,19345,13,19350,55
2017-01-11 13:07:00,13:07:36,13:07:57,34721,34755,19345.0,31,19350.0,51,19350.0,19350.0,19350.0,19350.0,13,13,19345,40,19350,55
2017-01-11 13:08:00,13:08:02,13:08:58,34758,34876,19345.0,42,19350.0,57,19345.0,19355.0,19345.0,19355.0,118,36,19350,39,19355,57
2017-01-11 13:09:00,13:09:07,13:09:59,34883,34952,19350.0,39,19355.0,57,19355.0,19360.0,19350.0,19360.0,28,18,19355,38,19360,59
2017-01-11 13:10:00,13:10:02,13:10:57,34957,35085,19355.0,34,19360.0,61,19360.0,19360.0,19355.0,19355.0,105,-17,19350,77,19360,71
2017-01-11 13:11:00,13:11:10,13:11:50,35094,35160,19350.0,79,19355.0,8,19355.0,19360.0,19355.0,19360.0,32,20,19355,28,19360,51
2017-01-11 13:12:00,13:12:00,13:12:51,35172,35263,19355.0,36,19360.0,54,19360.0,19360.0,19355.0,19360.0,48,2,19355,33,19360,56
2017-01-11 13:13:00,13:13:00,13:13:50,35274,35352,19355.0,35,19360.0,50,19360.0,19360.0,19355.0,19355.0,45,5,19355,2,19360,64
2017-01-11 13:14:00,13:14:00,13:14:51,35360,35456,19355.0,16,19360.0,57,19360.0,19360.0,19355.0,19360.0,38,-10,19355,41,19360,49
2017-01-11 13:15:00,13:15:01,13:15:57,35460,35520,19355.0,41,19360.0,50,19360.0,19360.0,19360.0,19360.0,23,23,19355,42,19360,50
2017-01-11 13:16:00,13:16:02,13:16:58,35526,35667,19355.0,42,19360.0,51,19360.0,19365.0,19360.0,19360.0,130,-12,19360,7,19360,13
2017-01-11 13:17:00,13:17:08,13:17:54,35669,35758,19355.0,67,19360.0,13,19360.0,19365.0,19360.0,19365.0,53,-1,19360,43,19365,70
2017-01-11 13:18:00,13:18:02,13:18:56,35763,35861,19360.0,47,19365.0,70,19365.0,19370.0,19360.0,19370.0,77,17,19365,25,19370,74
2017-01-11 13:19:00,13:19:01,13:19:48,35867,35931,19365.0,26,19370.0,81,19365.0,19365.0,19365.0,19365.0,44,-8,19360,85,19365,30
2017-01-11 13:20:00,13:20:00,13:20:58,35934,36042,19360.0,88,19365.0,39,19365.0,19370.0,19365.0,19370.0,104,44,19365,9,19370,73
2017-01-11 13:21:00,13:21:08,13:21:59,36056,36102,19365.0,36,19370.0,72,19370.0,19370.0,19370.0,19370.0,19,19,19365,57,19370,59
2017-01-11 13:22:00,13:22:00,13:22:54,36105,36253,19365.0,57,19370.0,59,19370.0,19375.0,19370.0,19370.0,142,50,19370,10,19370,16
2017-01-11 13:23:00,13:23:00,13:23:51,36258,36385,19365.0,89,19370.0,19,19370.0,19375.0,19365.0,19370.0,148,-54,19365,2,19370,63
2017-01-11 13:24:00,13:24:00,13:24:58,36396,36446,19365.0,9,19370.0,76,19365.0,19365.0,19365.0,19365.0,28,14,19360,86,19365,33
2017-01-11 13:25:00,13:25:07,13:25:57,36458,36544,19360.0,87,19365.0,31,19365.0,19365.0,19360.0,19360.0,67,-49,19355,66,19360,30
2017-01-11 13:26:00,13:26:14,13:26:58,36569,36650,19355.0,33,19360.0,64,19355.0,19360.0,19355.0,19360.0,52,-44,19355,32,19360,75
2017-01-11 13:27:00,13:27:06,13:27:59,36660,36769,19355.0,49,19360.0,74,19360.0,19360.0,19355.0,19360.0,100,-82,19355,44,19360,59
2017-01-11 13:28:00,13:28:09,13:28:51,36780,36914,19355.0,49,19360.0,58,19360.0,19360.0,19355.0,19355.0,164,30,19350,73,19360,71
2017-01-11 13:29:00,13:29:00,13:29:41,36926,37016,19355.0,19,19360.0,76,19360.0,19360.0,19350.0,19355.0,77,-41,19350,41,19355,45
2017-01-11 13:30:00,13:30:02,13:30:57,37038,37185,19350.0,61,19355.0,46,19355.0,19355.0,19350.0,19350.0,123,-85,19345,78,19350,1
2017-01-11 13:31:00,13:31:10,13:31:37,37202,37286,19345.0,75,19350.0,21,19350.0,19350.0,19350.0,19350.0,75,61,19345,75,19355,73
2017-01-11 13:32:00,13:32:00,13:32:26,37309,37360,19345.0,71,19350.0,37,19350.0,19355.0,19350.0,19355.0,28,4,19350,43,19355,39
2017-01-11 13:33:00,13:33:01,13:33:57,37402,37540,19350.0,69,19355.0,31,19355.0,19355.0,19350.0,19355.0,98,44,19355,16,19355,6
2017-01-11 13:34:00,13:34:03,13:34:56,37545,37614,19350.0,88,19355.0,3,19355.0,19360.0,19355.0,19355.0,73,-1,19350,80,19355,36
2017-01-11 13:35:00,13:35:17,13:35:56,37624,37666,19350.0,79,19355.0,38,19355.0,19360.0,19355.0,19355.0,26,16,19355,24,19360,64
2017-01-11 13:36:00,13:36:21,13:36:49,37692,37761,19355.0,40,19360.0,53,19360.0,19360.0,19360.0,19360.0,80,36,19355,43,19360,56
2017-01-11 13:37:00,13:37:04,13:37:37,37769,37835,19355.0,46,19360.0,54,19360.0,19360.0,19360.0,19360.0,58,-10,19360,5,19365,71
2017-01-11 13:38:00,13:38:29,13:38:29,37858,37861,19360.0,63,19365.0,53,19365.0,19365.0,19365.0,19365.0,4,4,19360,61,19365,51
2017-01-11 13:39:00,13:39:12,13:39:38,37875,37968,19360.0,38,19365.0,72,19360.0,19360.0,19360.0,19360.0,95,7,19355,69,19365,87
2017-01-11 13:40:00,13:40:09,13:40:59,37990,38070,19355.0,77,19360.0,8,19360.0,19360.0,19360.0,19360.0,69,-35,19355,73,19365,86
2017-01-11 13:41:00,13:41:03,13:41:53,38079,38143,19360.0,25,19365.0,86,19360.0,19360.0,19360.0,19360.0,59,15,19355,71,19365,87
2017-01-11 13:42:00,13:42:03,13:42:45,38154,38209,19355.0,71,19360.0,7,19360.0,19365.0,19360.0,19365.0,31,11,19360,32,19365,75
2017-01-11 13:43:00,13:43:28,13:43:44,38238,38281,19360.0,38,19365.0,90,19365.0,19365.0,19360.0,19360.0,51,-27,19360,15,19365,87
2017-01-11 13:44:00,13:44:16,13:44:48,38313,38401,19360.0,40,19365.0,87,19360.0,19365.0,19360.0,19360.0,94,-92,19360,42,19365,73
2017-01-11 13:45:00,13:45:02,13:45:59,38411,38470,19360.0,51,19365.0,92,19365.0,19365.0,19365.0,19365.0,69,69,19365,36,19370,60
2017-01-11 13:46:00,13:46:00,13:46:35,38475,38568,19365.0,39,19370.0,75,19365.0,19370.0,19365.0,19370.0,72,-20,19365,54,19370,42
2017-01-11 13:47:00,13:47:01,13:47:51,38588,38694,19365.0,56,19370.0,58,19370.0,19370.0,19365.0,19365.0,126,36,19360,61,19365,19
2017-01-11 13:48:00,13:48:02,13:48:53,38702,38844,19360.0,61,19365.0,14,19365.0,19365.0,19360.0,19360.0,123,-69,19360,40,19365,43
2017-01-11 13:49:00,13:49:17,13:49:19,38880,38900,19360.0,17,19365.0,69,19360.0,19360.0,19360.0,19360.0,24,-16,19355,72,19365,68
2017-01-11 13:50:00,13:50:03,13:50:45,38938,39003,19355.0,74,19360.0,22,19360.0,19360.0,19355.0,19360.0,27,25,19355,42,19360,64
2017-01-11 13:51:00,13:51:01,13:51:33,39021,39095,19355.0,37,19360.0,71,19360.0,19360.0,19355.0,19355.0,145,-133,19355,30,19360,49
2017-01-11 13:52:00,13:52:11,13:52:58,39131,39326,19355.0,48,19360.0,68,19360.0,19360.0,19355.0,19360.0,214,18,19355,68,19360,34
2017-01-11 13:53:00,13:53:10,13:53:58,39342,39428,19355.0,80,19360.0,31,19360.0,19365.0,19360.0,19365.0,86,86,19360,86,19365,42
2017-01-11 13:54:00,13:54:08,13:54:39,39442,39571,19360.0,89,19365.0,47,19365.0,19365.0,19355.0,19360.0,163,-65,19355,19,19360,69
2017-01-11 13:55:00,13:55:05,13:55:59,39596,39681,19355.0,73,19360.0,36,19355.0,19360.0,19355.0,19355.0,36,-26,19355,36,19360,74
2017-01-11 13:56:00,13:56:00,13:56:42,39684,39865,19355.0,36,19360.0,74,19355.0,19360.0,19350.0,19355.0,217,-59,19350,55,19355,58
2017-01-11 13:57:00,13:57:03,13:57:52,39885,40007,19350.0,61,19355.0,68,19355.0,19355.0,19345.0,19350.0,80,-36,19345,81,19350,57
2017-01-11 13:58:00,13:58:01,13:58:59,40016,40177,19345.0,82,19350.0,52,19350.0,19355.0,19345.0,19350.0,145,105,19350,118,19355,61
2017-01-11 13:59:00,13:59:00,13:59:59,40181,40525,19350.0,119,19355.0,61,19355.0,19355.0,19345.0,19350.0,340,-42,19350,42,19350,12
2017-01-11 14:00:00,14:00:00,14:00:55,40527,41059,19345.0,97,19350.0,12,19350.0,19365.0,19345.0,19360.0,796,202,19360,52,19365,128
2017-01-11 14:01:00,14:01:01,14:01:58,41065,41329,19360.0,57,19365.0,129,19360.0,19370.0,19360.0,19365.0,444,70,19360,154,19365,17
2017-01-11 14:02:00,14:02:02,14:02:57,41335,41524,19360.0,154,19365.0,18,19365.0,19365.0,19355.0,19355.0,259,-107,19355,48,19360,125
2017-01-11 14:03:00,14:03:03,14:03:54,41536,41598,19355.0,76,19360.0,123,19355.0,19360.0,19355.0,19360.0,40,-12,19355,51,19360,133
2017-01-11 14:04:00,14:04:04,14:04:57,41610,41722,19355.0,93,19360.0,119,19360.0,19360.0,19355.0,19355.0,156,-114,19355,17,19360,111
2017-01-11 14:05:00,14:05:03,14:05:59,41733,42055,19355.0,26,19360.0,110,19360.0,19370.0,19360.0,19370.0,419,230,19365,8,19370,108
2017-01-11 14:06:00,14:06:03,14:06:50,42065,42144,19365.0,18,19370.0,108,19365.0,19365.0,19360.0,19360.0,67,7,19360,20,19365,102
2017-01-11 14:07:00,14:07:00,14:07:58,42163,42388,19360.0,29,19365.0,103,19360.0,19365.0,19360.0,19365.0,271,111,19360,83,19365,59
2017-01-11 14:08:00,14:08:01,14:08:59,42391,42535,19360.0,83,19365.0,59,19365.0,19370.0,19360.0,19370.0,186,-19,19365,22,19370,85
2017-01-11 14:09:00,14:09:00,14:09:59,42538,42704,19365.0,22,19370.0,85,19365.0,19370.0,19350.0,19355.0,116,-76,19350,47,19355,74
