,ST,ET,sidx,eidx,bB,bBS,bA,bAS,O,H,L,C,V,OF,eB,eBS,eA,eAS
2017-02-13 08:00:00,08:00:00,08:00:55,4886,5495,19500.0,44,19505.0,10,19505.0,19510.0,19490.0,19505.0,832,38,19505,51,19510,43
2017-02-13 08:01:00,08:01:01,08:01:59,5508,5992,19505.0,50,19510.0,49,19505.0,19510.0,19485.0,19490.0,599,-75,19490,74,19495,36
2017-02-13 08:02:00,08:02:00,08:02:59,5995,6496,19490.0,74,19495.0,36,19490.0,19490.0,19470.0,19475.0,730,-535,19470,30,19475,50
2017-02-13 08:03:00,08:03:03,08:03:59,6506,6810,19470.0,39,19475.0,55,19475.0,19475.0,19470.0,19475.0,331,-37,19475,15,19480,85
2017-02-13 08:04:00,08:04:01,08:04:56,6815,7125,19475.0,14,19480.0,87,19475.0,19485.0,19475.0,19480.0,412,62,19480,34,19485,67
2017-02-13 08:05:00,08:05:01,08:05:43,7137,7243,19480.0,47,19485.0,45,19480.0,19485.0,19480.0,19480.0,80,-76,19480,40,19485,39
2017-02-13 08:06:00,08:06:17,08:06:59,7292,7509,19480.0,44,19485.0,83,19480.0,19485.0,19470.0,19480.0,214,62,19480,38,19485,38
2017-02-13 08:07:00,08:07:06,08:07:59,7520,8025,19480.0,27,19485.0,72,19480.0,19500.0,19480.0,19480.0,652,-196,19480,58,19485,39
2017-02-13 08:08:00,08:08:00,08:08:57,8028,8309,19480.0,58,19485.0,39,19480.0,19490.0,19475.0,19485.0,237,5,19480,64,19485,34
2017-02-13 08:09:00,08:09:00,08:09:59,8310,8720,19480.0,65,19485.0,48,19480.0,19485.0,19470.0,19475.0,453,180,19475,47,19480,57
2017-02-13 08:10:00,08:10:00,08:10:56,8721,9001,19470.0,57,19475.0,7,19475.0,19485.0,19470.0,19485.0,313,184,19485,30,19490,43
2017-02-13 08:11:00,08:11:00,08:11:57,9012,9194,19485.0,36,19490.0,65,19490.0,19495.0,19485.0,19485.0,144,-4,19480,72,19485,19
2017-02-13 08:12:00,08:12:00,08:12:55,9202,9392,19480.0,78,19485.0,14,19485.0,19490.0,19485.0,19490.0,163,119,19485,59,19490,17
2017-02-13 08:13:00,08:13:02,08:13:53,9402,9673,19485.0,38,19490.0,45,19485.0,19495.0,19485.0,19495.0,335,-33,19490,23,19495,91
2017-02-13 08:14:00,08:14:02,08:14:59,9686,9978,19490.0,44,19495.0,89,19495.0,19505.0,19490.0,19500.0,394,138,19495,61,19505,54
2017-02-13 08:15:00,08:15:00,08:15:59,9983,10232,19500.0,25,19505.0,53,19505.0,19510.0,19500.0,19500.0,184,-54,19500,2,19505,45
2017-02-13 08:16:00,08:16:02,08:16:59,10238,10470,19500.0,4,19505.0,64,19500.0,19505.0,19495.0,19495.0,208,38,19495,26,19500,60
2017-02-13 08:17:00,08:17:03,08:17:59,10481,10551,19490.0,84,19495.0,7,19495.0,19495.0,19490.0,19490.0,17,-15,19490,49,19495,66
2017-02-13 08:18:00,08:18:15,08:18:51,10569,10681,19490.0,81,19495.0,45,19490.0,19495.0,19490.0,19495.0,105,45,19490,82,19495,24
2017-02-13 08:19:00,08:19:00,08:19:58,10698,10864,19490.0,72,19495.0,49,19490.0,19495.0,19485.0,19490.0,134,-74,19490,53,19495,44
2017-02-13 08:20:00,08:20:00,08:20:57,10871,11092,19490.0,54,19495.0,41,19490.0,19490.0,19475.0,19475.0,256,-204,19470,60,19475,21
2017-02-13 08:21:00,08:21:06,08:21:47,11112,11288,19470.0,43,19475.0,102,19475.0,19480.0,19470.0,19475.0,197,-77,19470,53,19475,18
2017-02-13 08:22:00,08:22:07,08:22:58,11317,11538,19470.0,54,19475.0,58,19470.0,19470.0,19460.0,19460.0,225,-223,19460,54,19465,26
2017-02-13 08:23:00,08:23:00,08:23:58,11542,11707,19460.0,54,19465.0,24,19465.0,19470.0,19465.0,19465.0,114,12,19465,34,19470,56
2017-02-13 08:24:00,08:24:09,08:24:52,11724,12038,19465.0,45,19470.0,44,19465.0,19465.0,19450.0,19455.0,382,-192,19455,43,19460,60
2017-02-13 08:25:00,08:25:00,08:25:53,12055,12408,19455.0,52,19460.0,55,19455.0,19480.0,19455.0,19470.0,533,193,19470,20,19475,48
2017-02-13 08:26:00,08:26:06,08:26:50,12428,12631,19470.0,49,19475.0,38,19470.0,19485.0,19470.0,19480.0,206,113,19475,50,19480,2
2017-02-13 08:27:00,08:27:01,08:27:57,12648,12794,19475.0,21,19480.0,38,19475.0,19475.0,19465.0,19470.0,122,-16,19465,58,19470,10
2017-02-13 08:28:00,08:28:01,08:28:48,12800,12877,19465.0,60,19470.0,3,19470.0,19475.0,19470.0,19470.0,37,-3,19470,37,19475,23
2017-02-13 08:29:00,08:29:02,08:29:48,12887,12930,19470.0,24,19475.0,55,19470.0,19470.0,19470.0,19470.0,18,-18,19470,39,19475,54
2017-02-13 08:30:00,08:30:19,08:30:57,12955,13084,19470.0,26,19475.0,73,19470.0,19470.0,19465.0,19470.0,90,-8,19465,61,19470,7
2017-02-13 08:31:00,08:31:01,08:31:53,13093,13164,19465.0,61,19470.0,9,19465.0,19470.0,19465.0,19465.0,28,-8,19465,48,19470,39
2017-02-13 08:32:00,08:32:00,08:32:55,13169,13375,19465.0,49,19470.0,40,19470.0,19475.0,19465.0,19475.0,201,101,19475,18,19475,22
2017-02-13 08:33:00,08:33:00,08:33:55,13378,13505,19475.0,19,19480.0,51,19480.0,19480.0,19465.0,19465.0,92,-72,19465,24,19470,37
2017-02-13 08:34:00,08:34:01,08:34:16,13512,13550,19465.0,30,19470.0,38,19470.0,19470.0,19465.0,19465.0,26,-8,19460,48,19470,36
2017-02-13 08:35:00,08:35:58,08:35:58,13618,13676,19460.0,54,19465.0,16,19460.0,19460.0,19450.0,19450.0,101,-101,19450,33,19455,20
2017-02-13 08:36:00,08:36:00,08:36:59,13682,14241,19450.0,36,19455.0,16,19450.0,19455.0,19430.0,19440.0,750,-278,19440,25,19445,31
2017-02-13 08:37:00,08:37:29,08:37:57,14289,14428,19440.0,35,19445.0,30,19440.0,19450.0,19435.0,19450.0,184,-37,19445,35,19450,35
2017-02-13 08:38:00,08:38:00,08:38:17,14436,14544,19445.0,38,19450.0,40,19445.0,19450.0,19445.0,19450.0,101,33,19445,50,19450,8
2017-02-13 08:39:00,08:39:07,08:39:58,14591,14920,19445.0,42,19450.0,37,19450.0,19455.0,19435.0,19450.0,349,41,19445,73,19450,15
2017-02-13 08:40:00,08:40:01,08:40:59,14925,15060,19445.0,75,19450.0,23,19450.0,19450.0,19440.0,19440.0,143,-69,19440,24,19445,41
2017-02-13 08:41:00,08:41:03,08:41:29,15068,15128,19440.0,22,19445.0,50,19440.0,19445.0,19440.0,19440.0,26,14,19440,25,19445,40
2017-02-13 08:42:00,08:42:20,08:42:51,15163,15274,19440.0,42,19445.0,50,19440.0,19445.0,19435.0,19435.0,74,-4,19435,50,19440,32
2017-02-13 08:43:00,08:43:00,08:43:56,15280,15403,19435.0,51,19440.0,32,19440.0,19440.0,19440.0,19440.0,90,-26,19440,22,19445,70
2017-02-13 08:44:00,08:44:02,08:44:53,15409,15473,19440.0,32,19445.0,65,19440.0,19445.0,19440.0,19440.0,25,-23,19440,31,19445,66
2017-02-13 08:45:00,08:45:03,08:45:54,15480,15624,19440.0,36,19445.0,66,19440.0,19445.0,19440.0,19445.0,101,-49,19445,50,19450,34
2017-02-13 08:46:00,08:46:04,08:46:56,15633,15755,19445.0,43,19450.0,44,19445.0,19445.0,19440.0,19440.0,119,-115,19435,48,19440,21
2017-02-13 08:47:00,08:47:05,08:47:59,15772,16031,19435.0,52,19440.0,24,19435.0,19450.0,19435.0,19450.0,257,53,19445,67,19455,44
2017-02-13 08:48:00,08:48:00,08:48:55,16032,16090,19445.0,61,19450.0,29,19450.0,19455.0,19450.0,19455.0,15,1,19455,40,19460,50
2017-02-13 08:49:00,08:49:11,08:49:59,16111,16264,19455.0,40,19460.0,47,19455.0,19455.0,19445.0,19445.0,162,-110,19445,47,19450,39
2017-02-13 08:50:00,08:50:55,08:50:59,16319,16322,19445.0,49,19450.0,62,19450.0,19450.0,19450.0,19450.0,2,2,19445,47,19450,60
2017-02-13 08:51:00,08:51:06,08:51:47,16330,16464,19445.0,48,19450.0,61,19445.0,19445.0,19440.0,19445.0,120,7,19445,24,19450,44
2017-02-13 08:52:00,08:52:10,08:52:36,16487,16536,19445.0,30,19450.0,42,19445.0,19445.0,19445.0,19445.0,34,-32,19440,50,19445,23
2017-02-13 08:53:00,08:53:10,08:53:28,16552,16644,19440.0,46,19445.0,30,19440.0,19440.0,19435.0,19440.0,87,-9,19435,58,19440,6
2017-02-13 08:54:00,08:54:35,08:54:49,16707,16805,19435.0,65,19440.0,33,19440.0,19440.0,19440.0,19440.0,100,-4,19435,50,19440,9
2017-02-13 08:55:00,08:55:02,08:55:55,16837,16939,19435.0,98,19440.0,7,19440.0,19440.0,19435.0,19435.0,46,20,19435,56,19440,15
2017-02-13 08:56:00,08:56:01,08:56:48,16944,17107,19435.0,62,19440.0,14,19435.0,19440.0,19435.0,19435.0,177,-87,19435,88,19440,53
2017-02-13 08:57:00,08:57:11,08:57:57,17129,17387,19435.0,82,19440.0,73,19435.0,19445.0,19425.0,19425.0,360,-150,19420,59,19430,48
2017-02-13 08:58:00,08:58:05,08:58:57,17410,17546,19425.0,15,19430.0,44,19425.0,19425.0,19425.0,19425.0,99,65,19425,25,19430,46
2017-02-13 08:59:00,08:59:03,08:59:59,17551,17824,19425.0,23,19430.0,46,19425.0,19425.0,19420.0,19425.0,252,-206,19420,52,19425,14
2017-02-13 09:00:00,09:00:10,09:00:59,17852,18166,19420.0,51,19425.0,43,19420.0,19430.0,19420.0,19430.0,389,-168,19425,88,19430,2
2017-02-13 09:01:00,09:01:20,09:01:58,18198,18382,19425.0,77,19430.0,40,19425.0,19425.0,19415.0,19415.0,172,-98,19415,69,19420,24
2017-02-13 09:02:00,09:02:01,09:02:55,18388,18633,19415.0,78,19420.0,24,19415.0,19415.0,19410.0,19415.0,266,-151,19415,18,19420,58
2017-02-13 09:03:00,09:03:05,09:03:57,18660,18871,19415.0,44,19420.0,53,19415.0,19415.0,19405.0,19410.0,214,-48,19405,108,19410,11
2017-02-13 09:04:00,09:04:00,09:04:57,18879,19595,19405.0,113,19410.0,17,19405.0,19450.0,19405.0,19440.0,1089,697,19440,10,19445,48
2017-02-13 09:05:00,09:05:06,09:05:59,19604,19749,19440.0,9,19445.0,46,19440.0,19445.0,19440.0,19440.0,125,-1,19435,52,19440,19
2017-02-13 09:06:00,09:06:00,09:06:58,19750,19834,19440.0,2,19445.0,48,19440.0,19440.0,19435.0,19435.0,42,-6,19435,29,19440,36
2017-02-13 09:07:00,09:07:07,09:07:54,19845,20025,19435.0,29,19440.0,31,19440.0,19440.0,19430.0,19430.0,148,-39,19430,10,19435,50
2017-02-13 09:08:00,09:08:15,09:08:56,20058,20172,19430.0,44,19435.0,32,19435.0,19435.0,19430.0,19435.0,106,4,19435,12,19440,50
2017-02-13 09:09:00,09:09:07,09:09:50,20180,20338,19435.0,19,19440.0,51,19435.0,19445.0,19430.0,19440.0,172,76,19435,35,19440,18
2017-02-13 09:10:00,09:10:17,09:10:58,20369,20519,19435.0,91,19440.0,30,19440.0,19445.0,19435.0,19445.0,145,-16,19440,79,19445,32
2017-02-13 09:11:00,09:11:03,09:11:55,20530,20743,19440.0,119,19445.0,18,19445.0,19455.0,19445.0,19455.0,239,63,19450,35,19455,46
2017-02-13 09:12:00,09:12:00,09:12:29,20756,20886,19450.0,53,19455.0,51,19450.0,19460.0,19450.0,19455.0,113,5,19450,36,19455,23
2017-02-13 09:13:00,09:13:34,09:13:53,20937,21029,19450.0,38,19455.0,26,19455.0,19465.0,19455.0,19460.0,132,-12,19460,12,19465,49
2017-02-13 09:14:00,09:14:09,09:14:59,21055,21255,19460.0,32,19465.0,52,19460.0,19460.0,19455.0,19460.0,179,21,19460,9,19465,56
2017-02-13 09:15:00,09:15:06,09:15:37,21274,21390,19460.0,29,19465.0,48,19460.0,19460.0,19450.0,19455.0,153,-43,19450,41,19455,10
2017-02-13 09:16:00,09:16:11,09:16:49,21430,21522,19450.0,52,19455.0,128,19455.0,19460.0,19455.0,19460.0,68,68,19460,16,19465,45
2017-02-13 09:17:00,09:17:11,09:17:40,21546,21723,19460.0,24,19465.0,45,19460.0,19465.0,19460.0,19460.0,170,-48,19455,41,19460,39
2017-02-13 09:18:00,09:18:52,09:18:59,21758,21789,19455.0,23,19460.0,47,19455.0,19455.0,19455.0,19455.0,36,-20,19455,1,19460,45
2017-02-13 09:19:00,09:19:01,09:19:45,21797,21883,19455.0,6,19460.0,45,19455.0,19460.0,19455.0,19460.0,33,17,19455,32,19460,20
2017-02-13 09:20:00,09:20:00,09:20:55,21893,22046,19455.0,38,19460.0,26,19460.0,19460.0,19445.0,19450.0,143,-15,19450,19,19455,43
2017-02-13 09:21:00,09:21:15,09:21:56,22058,22224,19450.0,31,19455.0,43,19450.0,19450.0,19435.0,19435.0,179,-149,19430,40,19435,13
2017-02-13 09:22:00,09:22:05,09:22:59,22230,22392,19430.0,40,19435.0,21,19435.0,19435.0,19430.0,19435.0,138,-9,19430,32,19435,23
2017-02-13 09:23:00,09:23:08,09:23:51,22400,22465,19430.0,34,19435.0,24,19435.0,19435.0,19435.0,19435.0,34,-6,19430,36,19440,45
2017-02-13 09:24:00,09:24:06,09:24:55,22474,22622,19435.0,33,19440.0,45,19440.0,19450.0,19440.0,19445.0,130,8,19440,41,19450,41
2017-02-13 09:25:00,09:25:35,09:25:53,22650,22710,19440.0,30,19445.0,32,19445.0,19445.0,19440.0,19440.0,51,13,19435,34,19445,40
2017-02-13 09:26:00,09:26:01,09:26:01,22724,22733,19440.0,30,19445.0,19,19445.0,19445.0,19445.0,19445.0,15,15,19440,34,19445,2
2017-02-13 09:27:00,09:27:00,09:27:47,22761,22810,19440.0,75,19445.0,31,19440.0,19445.0,19440.0,19445.0,49,35,19445,15,19450,41
2017-02-13 09:28:00,09:28:24,09:28:56,22826,22896,19445.0,18,19450.0,40,19445.0,19445.0,19445.0,19445.0,60,18,19445,18,19450,38
2017-02-13 09:29:00,09:29:00,09:29:51,22905,23072,19445.0,18,19450.0,37,19445.0,19445.0,19440.0,19445.0,215,-1,19445,22,19450,30
2017-02-13 09:30:00,09:30:09,09:30:43,23096,23253,19445.0,26,19450.0,31,19450.0,19455.0,19450.0,19455.0,137,46,19450,33,19455,23
2017-02-13 09:31:00,09:31:07,09:31:57,23278,23385,19450.0,32,19455.0,25,19455.0,19455.0,19455.0,19455.0,75,-28,19450,52,19455,20
2017-02-13 09:32:00,09:32:05,09:32:51,23401,23543,19450.0,49,19455.0,23,19455.0,19460.0,19455.0,19460.0,132,50,19455,34,19460,19
2017-02-13 09:33:00,09:33:05,09:33:57,23557,23724,19455.0,33,19460.0,16,19460.0,19470.0,19455.0,19465.0,182,34,19465,11,19470,36
2017-02-13 09:34:00,09:34:00,09:34:52,23731,23850,19465.0,26,19470.0,28,19465.0,19465.0,19465.0,19465.0,105,-57,19460,64,19470,41
2017-02-13 09:35:00,09:35:45,09:35:50,23903,23969,19460.0,60,19465.0,25,19460.0,19465.0,19460.0,19465.0,104,-12,19460,35,19465,23
2017-02-13 09:36:00,09:36:01,09:36:57,23983,24068,19460.0,31,19465.0,25,19465.0,19465.0,19460.0,19460.0,67,-7,19455,26,19460,26
2017-02-13 09:37:00,09:37:03,09:37:56,24077,24281,19455.0,24,19460.0,25,19460.0,19465.0,19460.0,19460.0,191,-73,19460,5,19465,42
2017-02-13 09:38:00,09:38:05,09:38:32,24296,24368,19460.0,22,19465.0,38,19465.0,19470.0,19465.0,19465.0,81,79,19460,28,19465,14
2017-02-13 09:39:00,09:39:13,09:39:50,24387,24413,19460.0,28,19465.0,21,19465.0,19465.0,19460.0,19460.0,14,-4,19455,39,19460,19
2017-02-13 09:40:00,09:40:14,09:40:58,24441,24516,19455.0,17,19460.0,35,19455.0,19460.0,19455.0,19455.0,39,-25,19450,29,19460,36
2017-02-13 09:41:00,09:41:38,09:41:46,24544,24572,19450.0,28,19455.0,18,19455.0,19455.0,19455.0,19455.0,22,22,19455,10,19460,39
2017-02-13 09:42:00,09:42:09,09:42:59,24585,24684,19455.0,16,19460.0,36,19455.0,19465.0,19455.0,19465.0,59,-5,19460,22,19465,28
2017-02-13 09:43:00,09:43:09,09:43:58,24703,24755,19460.0,22,19465.0,35,19465.0,19465.0,19460.0,19460.0,34,-2,19455,39,19465,41
2017-02-13 09:44:00,09:44:01,09:44:53,24761,24892,19455.0,32,19460.0,5,19460.0,19465.0,19460.0,19465.0,84,-42,19460,1,19465,34
2017-02-13 09:45:00,09:45:00,09:45:47,24898,25008,19460.0,15,19465.0,35,19460.0,19465.0,19455.0,19455.0,52,-12,19455,13,19460,28
2017-02-13 09:46:00,09:46:02,09:46:53,25025,25091,19455.0,15,19460.0,34,19455.0,19455.0,19450.0,19450.0,49,-43,19450,24,19455,27
2017-02-13 09:47:00,09:47:04,09:47:42,25103,25271,19450.0,29,19455.0,25,19450.0,19470.0,19450.0,19470.0,188,166,19465,32,19470,16
2017-02-13 09:48:00,09:48:07,09:48:55,25303,25400,19465.0,85,19470.0,26,19470.0,19470.0,19465.0,19470.0,72,34,19470,6,19475,36
2017-02-13 09:49:00,09:49:30,09:49:58,25436,25540,19470.0,31,19475.0,37,19470.0,19475.0,19470.0,19475.0,108,-14,19470,36,19480,43
2017-02-13 09:50:00,09:50:00,09:50:42,25545,25728,19475.0,17,19480.0,43,19475.0,19485.0,19470.0,19485.0,175,83,19485,12,19490,34
2017-02-13 09:51:00,09:51:10,09:51:48,25764,25871,19485.0,35,19490.0,28,19490.0,19490.0,19485.0,19485.0,87,-39,19480,48,19485,16
2017-02-13 09:52:00,09:52:09,09:52:59,25886,25925,19480.0,48,19485.0,31,19485.0,19485.0,19485.0,19485.0,29,29,19480,51,19485,10
2017-02-13 09:53:00,09:53:15,09:53:58,25933,26091,19480.0,47,19485.0,21,19485.0,19485.0,19475.0,19475.0,170,-38,19470,62,19480,53
2017-02-13 09:54:00,09:54:01,09:54:38,26098,26233,19470.0,62,19475.0,3,19475.0,19480.0,19475.0,19475.0,171,73,19475,13,19480,37
2017-02-13 09:55:00,09:55:01,09:55:31,26255,26276,19475.0,28,19480.0,42,19480.0,19480.0,19475.0,19475.0,4,-2,19475,17,19480,44
2017-02-13 09:56:00,09:56:07,09:56:09,26290,26308,19475.0,26,19480.0,48,19475.0,19475.0,19475.0,19475.0,16,-16,19470,38,19475,6
2017-02-13 09:57:00,09:57:47,09:57:57,26387,26486,19470.0,49,19475.0,21,19475.0,19485.0,19475.0,19480.0,144,97,19475,43,19480,6
2017-02-13 09:58:00,09:58:06,09:58:44,26497,26570,19475.0,50,19480.0,3,19480.0,19485.0,19480.0,19480.0,72,25,19475,33,19480,25
2017-02-13 09:59:00,09:59:08,09:59:58,26598,26737,19475.0,20,19480.0,32,19475.0,19475.0,19465.0,19475.0,126,8,19470,49,19480,37
2017-02-13 10:00:00,10:00:02,10:00:49,26747,26854,19475.0,23,19480.0,32,19475.0,19480.0,19475.0,19475.0,85,19,19475,14,19480,27
2017-02-13 10:01:00,10:01:04,10:01:59,26875,26986,19475.0,6,19480.0,29,19475.0,19475.0,19470.0,19470.0,79,-59,19470,23,19475,22
2017-02-13 10:02:00,10:02:11,10:02:17,27010,27025,19470.0,29,19475.0,23,19475.0,19475.0,19475.0,19475.0,13,13,19470,28,19475,9
2017-02-13 10:03:00,10:03:04,10:03:59,27057,27104,19470.0,32,19475.0,9,19475.0,19480.0,19475.0,19475.0,42,2,19475,26,19480,26
2017-02-13 10:04:00,10:04:08,10:04:55,27116,27187,19475.0,19,19480.0,31,19475.0,19475.0,19475.0,19475.0,46,-26,19475,7,19480,31
2017-02-13 10:05:00,10:05:03,10:05:58,27192,27261,19475.0,12,19480.0,31,19475.0,19475.0,19475.0,19475.0,37,-1,19470,39,19475,5
2017-02-13 10:06:00,10:06:07,10:06:40,27268,27344,19470.0,39,19475.0,5,19475.0,19475.0,19470.0,19475.0,65,23,19470,39,19480,40
2017-02-13 10:07:00,10:07:00,10:07:00,0,0,0.0,0,0.0,0,19475.0,19475.0,19475.0,19475.0,0,0,0,0,0,0
2017-02-13 10:08:00,10:08:02,10:08:36,27372,27401,19475.0,14,19480.0,39,19475.0,19480.0,19475.0,19480.0,17,-13,19475,26,19480,35
2017-02-13 10:09:00,10:09:03,10:09:59,27408,27511,19475.0,26,19480.0,36,19480.0,19485.0,19475.0,19485.0,72,46,19480,32,19485,2
2017-02-13 10:10:00,10:10:07,10:10:57,27521,27623,19480.0,35,19485.0,2,19485.0,19485.0,19480.0,19485.0,80,-26,19480,41,19490,56
2017-02-13 10:11:00,10:11:05,10:11:54,27632,27672,19485.0,20,19490.0,56,19485.0,19485.0,19480.0,19480.0,30,-30,19480,27,19485,23
2017-02-13 10:12:00,10:12:30,10:12:51,27689,27707,19480.0,27,19485.0,37,19480.0,19480.0,19480.0,19480.0,4,-4,19480,22,19485,42
2017-02-13 10:13:00,10:13:06,10:13:54,27711,27787,19480.0,20,19485.0,42,19480.0,19480.0,19475.0,19480.0,88,-6,19480,11,19485,35
2017-02-13 10:14:00,10:14:07,10:14:56,27796,27886,19480.0,20,19485.0,36,19480.0,19480.0,19480.0,19480.0,27,-27,19480,23,19485,38
2017-02-13 10:15:00,10:15:03,10:15:59,27893,28063,19480.0,23,19485.0,38,19480.0,19480.0,19475.0,19480.0,185,-56,19475,32,19480,14
2017-02-13 10:16:00,10:16:00,10:16:59,28066,28201,19475.0,32,19480.0,14,19480.0,19485.0,19480.0,19485.0,139,-13,19485,5,19490,63
2017-02-13 10:17:00,10:17:00,10:17:55,28202,28269,19485.0,10,19490.0,61,19485.0,19490.0,19485.0,19485.0,24,16,19485,30,19490,62
2017-02-13 10:18:00,10:18:11,10:18:11,28273,28273,19485.0,32,19490.0,62,19490.0,19490.0,19490.0,19490.0,3,3,19485,33,19490,59
2017-02-13 10:19:00,10:19:05,10:19:13,28291,28298,19485.0,34,19490.0,62,19490.0,19490.0,19490.0,19490.0,4,4,19485,34,19490,59
2017-02-13 10:20:00,10:20:06,10:20:59,28330,28462,19485.0,47,19490.0,58,19490.0,19495.0,19490.0,19490.0,160,-18,19485,47,19490,73
2017-02-13 10:21:00,10:21:16,10:21:43,28472,28489,19485.0,45,19490.0,79,19490.0,19490.0,19485.0,19490.0,4,2,19485,36,19490,80
2017-02-13 10:22:00,10:22:00,10:22:00,0,0,0.0,0,0.0,0,19490.0,19490.0,19490.0,19490.0,0,0,0,0,0,0
2017-02-13 10:23:00,10:23:00,10:23:08,28502,28539,19485.0,37,19490.0,82,19490.0,19490.0,19490.0,19490.0,100,60,19485,102,19490,105
2017-02-13 10:24:00,10:24:58,10:24:58,28574,28576,19485.0,97,19490.0,117,19490.0,19490.0,19490.0,19490.0,2,2,19485,99,19490,115
2017-02-13 10:25:00,10:25:05,10:25:52,28580,28672,19485.0,99,19490.0,120,19490.0,19490.0,19490.0,19490.0,248,51,19485,66,19490,31
2017-02-13 10:26:00,10:26:01,10:26:50,28680,28783,19485.0,58,19490.0,34,19485.0,19490.0,19480.0,19490.0,141,-7,19485,40,19490,38
2017-02-13 10:27:00,10:27:06,10:27:18,28797,28832,19485.0,48,19490.0,22,19490.0,19490.0,19485.0,19485.0,28,-18,19480,61,19485,23
2017-02-13 10:28:00,10:28:23,10:28:59,28875,28922,19480.0,34,19485.0,47,19480.0,19480.0,19480.0,19480.0,25,-21,19475,32,19480,40
2017-02-13 10:29:00,10:29:01,10:29:59,28925,29147,19475.0,32,19480.0,40,19480.0,19480.0,19470.0,19475.0,256,-58,19470,62,19475,11
2017-02-13 10:30:00,10:30:00,10:30:33,29150,29233,19470.0,62,19475.0,11,19475.0,19480.0,19470.0,19475.0,54,-3,19470,58,19480,42
2017-02-13 10:31:00,10:31:14,10:31:56,29265,29367,19470.0,52,19475.0,30,19470.0,19470.0,19465.0,19465.0,96,-33,19460,45,19465,57
2017-02-13 10:32:00,10:32:27,10:32:32,29393,29434,19460.0,55,19465.0,66,19465.0,19470.0,19465.0,19465.0,89,85,19465,43,19470,50
2017-02-13 10:33:00,10:33:07,10:33:54,29456,29592,19465.0,47,19470.0,62,19470.0,19480.0,19470.0,19475.0,133,66,19470,41,19475,1
2017-02-13 10:34:00,10:34:13,10:34:49,29612,29649,19470.0,44,19475.0,25,19470.0,19475.0,19470.0,19475.0,14,6,19470,42,19475,22
2017-02-13 10:35:00,10:35:01,10:35:26,29662,29697,19470.0,41,19475.0,21,19470.0,19475.0,19470.0,19475.0,13,-7,19470,40,19475,7
2017-02-13 10:36:00,10:36:29,10:36:29,29727,29737,19475.0,34,19480.0,76,19475.0,19475.0,19475.0,19475.0,14,-14,19470,39,19475,23
2017-02-13 10:37:00,10:37:34,10:37:34,29760,29779,19470.0,44,19475.0,42,19475.0,19475.0,19475.0,19475.0,29,29,19475,22,19480,52
2017-02-13 10:38:00,10:38:01,10:38:13,29790,29802,19475.0,39,19480.0,52,19480.0,19480.0,19480.0,19480.0,8,8,19480,26,19485,43
2017-02-13 10:39:00,10:39:01,10:39:50,29830,30011,19480.0,60,19485.0,27,19485.0,19490.0,19485.0,19490.0,137,81,19485,39,19490,3
2017-02-13 10:40:00,10:40:22,10:40:53,30031,30129,19485.0,32,19490.0,23,19490.0,19490.0,19480.0,19485.0,110,-96,19480,33,19485,10
2017-02-13 10:41:00,10:41:11,10:41:37,30144,30321,19480.0,34,19485.0,27,19485.0,19490.0,19485.0,19485.0,170,42,19485,26,19490,39
2017-02-13 10:42:00,10:42:17,10:42:31,30355,30399,19485.0,25,19490.0,39,19485.0,19485.0,19485.0,19485.0,34,-2,19485,18,19490,40
2017-02-13 10:43:00,10:43:19,10:43:56,30428,30505,19485.0,30,19490.0,26,19490.0,19490.0,19490.0,19490.0,81,-63,19485,34,19495,48
2017-02-13 10:44:00,10:44:08,10:44:46,30519,30572,19490.0,10,19495.0,54,19490.0,19495.0,19490.0,19495.0,27,-17,19490,40,19495,34
2017-02-13 10:45:00,10:45:30,10:45:52,30605,30623,19490.0,21,19495.0,58,19490.0,19490.0,19490.0,19490.0,19,-5,19485,22,19490,27
2017-02-13 10:46:00,10:46:00,10:46:00,0,0,0.0,0,0.0,0,19490.0,19490.0,19490.0,19490.0,0,0,0,0,0,0
2017-02-13 10:47:00,10:47:15,10:47:49,30676,30728,19485.0,29,19490.0,37,19485.0,19485.0,19485.0,19485.0,41,-17,19485,20,19490,38
2017-02-13 10:48:00,10:48:05,10:48:16,30735,30738,19485.0,23,19490.0,38,19485.0,19485.0,19485.0,19485.0,2,-2,19485,17,19490,40
2017-02-13 10:49:00,10:49:29,10:49:45,30757,30800,19485.0,25,19490.0,43,19490.0,19490.0,19490.0,19490.0,54,50,19490,40,19495,42
2017-02-13 10:50:00,10:50:05,10:50:58,30810,30896,19490.0,44,19495.0,47,19495.0,19495.0,19490.0,19490.0,54,4,19485,32,19490,20
2017-02-13 10:51:00,10:51:11,10:51:37,30917,30984,19485.0,59,19490.0,6,19490.0,19490.0,19490.0,19490.0,68,-11,19490,20,19495,58
2017-02-13 10:52:00,10:52:00,10:52:00,0,0,0.0,0,0.0,0,19490.0,19490.0,19490.0,19490.0,0,0,0,0,0,0
2017-02-13 10:53:00,10:53:36,10:53:47,30997,31028,19490.0,27,19495.0,58,19490.0,19490.0,19490.0,19490.0,34,-34,19490,11,19495,48
2017-02-13 10:54:00,10:54:05,10:54:37,31044,31104,19490.0,53,19495.0,35,19495.0,19495.0,19495.0,19495.0,62,10,19490,50,19495,26
2017-02-13 10:55:00,10:55:43,10:55:43,31143,31146,19490.0,50,19495.0,35,19495.0,19495.0,19495.0,19495.0,10,10,19490,51,19495,31
2017-02-13 10:56:00,10:56:04,10:56:58,31151,31212,19490.0,51,19495.0,37,19495.0,19495.0,19495.0,19495.0,25,11,19495,6,19500,71
2017-02-13 10:57:00,10:57:04,10:57:05,31218,31221,19495.0,7,19500.0,71,19495.0,19495.0,19495.0,19495.0,7,-7,19490,47,19500,77
2017-02-13 10:58:00,10:58:38,10:58:38,31262,31264,19490.0,48,19495.0,28,19495.0,19495.0,19495.0,19495.0,4,4,19490,49,19500,76
2017-02-13 10:59:00,10:59:00,10:59:00,31281,31283,19490.0,48,19495.0,22,19495.0,19495.0,19495.0,19495.0,3,3,19495,15,19500,73
2017-02-13 11:00:00,11:00:13,11:00:58,31333,31367,19495.0,12,19500.0,71,19495.0,19500.0,19495.0,19495.0,23,-21,19495,22,19500,70
2017-02-13 11:01:00,11:01:21,11:01:53,31386,31441,19495.0,14,19500.0,73,19495.0,19495.0,19495.0,19495.0,47,-11,19490,58,19495,16
2017-02-13 11:02:00,11:02:00,11:02:00,0,0,0.0,0,0.0,0,19495.0,19495.0,19495.0,19495.0,0,0,0,0,0,0
2017-02-13 11:03:00,11:03:00,11:03:00,0,0,0.0,0,0.0,0,19495.0,19495.0,19495.0,19495.0,0,0,0,0,0,0
2017-02-13 11:04:00,11:04:34,11:04:56,31495,31528,19490.0,58,19495.0,20,19495.0,19495.0,19495.0,19495.0,33,17,19495,6,19500,68
2017-02-13 11:05:00,11:05:11,11:05:29,31540,31598,19495.0,14,19500.0,70,19495.0,19495.0,19490.0,19490.0,68,-64,19485,36,19490,26
2017-02-13 11:06:00,11:06:16,11:06:52,31617,31705,19485.0,31,19490.0,35,19485.0,19485.0,19480.0,19485.0,98,-90,19480,48,19485,24
2017-02-13 11:07:00,11:07:13,11:07:20,31715,31731,19480.0,40,19485.0,33,19480.0,19480.0,19480.0,19480.0,17,-17,19480,30,19485,21
2017-02-13 11:08:00,11:08:00,11:08:00,0,0,0.0,0,0.0,0,19480.0,19480.0,19480.0,19480.0,0,0,0,0,0,0
2017-02-13 11:09:00,11:09:00,11:09:00,0,0,0.0,0,0.0,0,19480.0,19480.0,19480.0,19480.0,0,0,0,0,0,0
2017-02-13 11:10:00,11:10:34,11:10:58,31777,31830,19480.0,33,19485.0,31,19485.0,19485.0,19485.0,19485.0,68,4,19480,34,19485,12
2017-02-13 11:11:00,11:11:05,11:11:50,31832,31851,19480.0,33,19485.0,12,19485.0,19485.0,19485.0,19485.0,19,19,19485,30,19490,34
2017-02-13 11:12:00,11:12:00,11:12:00,0,0,0.0,0,0.0,0,19485.0,19485.0,19485.0,19485.0,0,0,0,0,0,0
2017-02-13 11:13:00,11:13:01,11:13:01,31869,31882,19485.0,38,19490.0,32,19485.0,19485.0,19485.0,19485.0,19,-19,19485,21,19490,32
2017-02-13 11:14:00,11:14:01,11:14:01,31892,31892,19485.0,9,19490.0,42,19485.0,19485.0,19485.0,19485.0,1,-1,19480,38,19485,3
2017-02-13 11:15:00,11:15:08,11:15:08,31913,31924,19480.0,37,19485.0,16,19485.0,19485.0,19485.0,19485.0,16,16,19480,38,19485,3
2017-02-13 11:16:00,11:16:31,11:16:34,31943,31954,19480.0,40,19485.0,8,19485.0,19485.0,19485.0,19485.0,9,9,19485,41,19490,41
2017-02-13 11:17:00,11:17:00,11:17:00,0,0,0.0,0,0.0,0,19485.0,19485.0,19485.0,19485.0,0,0,0,0,0,0
2017-02-13 11:18:00,11:18:05,11:18:59,31972,32055,19485.0,78,19490.0,34,19490.0,19495.0,19490.0,19490.0,90,90,19485,65,19490,17
2017-02-13 11:19:00,11:19:00,11:19:00,0,0,0.0,0,0.0,0,19490.0,19490.0,19490.0,19490.0,0,0,0,0,0,0
2017-02-13 11:20:00,11:20:00,11:20:00,0,0,0.0,0,0.0,0,19490.0,19490.0,19490.0,19490.0,0,0,0,0,0,0
2017-02-13 11:21:00,11:21:12,11:21:12,32086,32094,19485.0,62,19490.0,12,19490.0,19490.0,19490.0,19490.0,10,10,19485,64,19490,1
2017-02-13 11:22:00,11:22:45,11:22:45,32113,32121,19485.0,64,19490.0,12,19490.0,19490.0,19490.0,19490.0,12,12,19485,28,19495,61
2017-02-13 11:23:00,11:23:01,11:23:01,32127,32135,19485.0,64,19490.0,4,19485.0,19485.0,19485.0,19485.0,50,-50,19485,28,19490,32
2017-02-13 11:24:00,11:24:00,11:24:00,0,0,0.0,0,0.0,0,19485.0,19485.0,19485.0,19485.0,0,0,0,0,0,0
2017-02-13 11:25:00,11:25:22,11:25:33,32161,32238,19485.0,33,19490.0,43,19490.0,19490.0,19490.0,19490.0,114,68,19485,38,19490,12
2017-02-13 11:26:00,11:26:00,11:26:00,0,0,0.0,0,0.0,0,19490.0,19490.0,19490.0,19490.0,0,0,0,0,0,0
2017-02-13 11:27:00,11:27:00,11:27:00,0,0,0.0,0,0.0,0,19490.0,19490.0,19490.0,19490.0,0,0,0,0,0,0
2017-02-13 11:28:00,11:28:17,11:28:40,32282,32366,19485.0,37,19490.0,39,19485.0,19490.0,19485.0,19490.0,101,47,19485,27,19490,23
2017-02-13 11:29:00,11:29:32,11:29:56,32380,32413,19485.0,28,19490.0,22,19490.0,19490.0,19490.0,19490.0,18,12,19485,28,19490,12
2017-02-13 11:30:00,11:30:00,11:30:36,32417,32551,19485.0,32,19490.0,15,19485.0,19490.0,19480.0,19490.0,111,24,19485,26,19490,31
2017-02-13 11:31:00,11:31:38,11:31:45,32587,32626,19485.0,34,19490.0,27,19490.0,19490.0,19485.0,19485.0,42,-2,19480,34,19485,14
2017-02-13 11:32:00,11:32:48,11:32:51,32648,32662,19480.0,29,19485.0,27,19480.0,19480.0,19480.0,19480.0,15,-15,19480,14,19485,35
2017-02-13 11:33:00,11:33:42,11:33:54,32698,32736,19480.0,53,19485.0,25,19485.0,19485.0,19480.0,19480.0,93,-83,19480,32,19485,32
2017-02-13 11:34:00,11:34:20,11:34:55,32757,32815,19480.0,42,19485.0,32,19480.0,19480.0,19475.0,19480.0,91,-91,19475,43,19485,34
2017-02-13 11:35:00,11:35:14,11:35:58,32831,32941,19480.0,24,19485.0,52,19485.0,19485.0,19470.0,19475.0,99,-65,19470,31,19475,36
2017-02-13 11:36:00,11:36:01,11:36:53,32949,33107,19470.0,24,19475.0,42,19470.0,19470.0,19460.0,19465.0,143,-18,19460,47,19470,43
2017-02-13 11:37:00,11:37:21,11:37:56,33139,33216,19465.0,32,19470.0,40,19470.0,19470.0,19460.0,19460.0,70,-36,19460,36,19465,34
2017-02-13 11:38:00,11:38:03,11:38:57,33228,33326,19460.0,38,19465.0,34,19465.0,19470.0,19465.0,19465.0,83,23,19465,33,19470,38
2017-02-13 11:39:00,11:39:20,11:39:58,33340,33401,19465.0,42,19470.0,34,19465.0,19465.0,19465.0,19465.0,21,-21,19465,33,19470,19
2017-02-13 11:40:00,11:40:22,11:40:59,33420,33514,19465.0,42,19470.0,19,19470.0,19475.0,19470.0,19475.0,67,-3,19470,46,19475,2
2017-02-13 11:41:00,11:41:05,11:41:16,33522,33570,19470.0,46,19475.0,2,19475.0,19475.0,19470.0,19470.0,50,-42,19470,20,19475,27
2017-02-13 11:42:00,11:42:03,11:42:03,33590,33592,19470.0,47,19475.0,22,19470.0,19470.0,19470.0,19470.0,4,-4,19470,41,19475,27
2017-02-13 11:43:00,11:43:01,11:43:45,33611,33654,19470.0,45,19475.0,29,19470.0,19470.0,19470.0,19470.0,39,-11,19470,47,19475,27
2017-02-13 11:44:00,11:44:02,11:44:44,33670,33716,19470.0,36,19475.0,29,19470.0,19470.0,19470.0,19470.0,35,-35,19465,40,19470,23
2017-02-13 11:45:00,11:45:00,11:45:09,33743,33786,19465.0,49,19470.0,25,19470.0,19470.0,19470.0,19470.0,39,1,19470,12,19475,47
2017-02-13 11:46:00,11:46:22,11:46:38,33832,33920,19470.0,34,19475.0,26,19470.0,19470.0,19460.0,19460.0,91,-91,19460,42,19465,27
2017-02-13 11:47:00,11:47:03,11:47:33,33928,33965,19460.0,46,19465.0,26,19465.0,19465.0,19465.0,19465.0,30,4,19460,50,19465,1
2017-02-13 11:48:00,11:48:06,11:48:34,33981,34018,19460.0,51,19465.0,7,19465.0,19465.0,19465.0,19465.0,34,24,19460,51,19470,47
2017-02-13 11:49:00,11:49:33,11:49:33,34040,34072,19465.0,38,19470.0,47,19465.0,19465.0,19465.0,19465.0,45,-43,19465,20,19470,47
2017-02-13 11:50:00,11:50:38,11:50:38,34087,34090,19465.0,30,19470.0,50,19465.0,19465.0,19465.0,19465.0,9,-9,19460,45,19465,12
2017-02-13 11:51:00,11:51:01,11:51:43,34110,34209,19460.0,41,19465.0,31,19460.0,19460.0,19455.0,19455.0,87,-58,19455,7,19460,53
2017-02-13 11:52:00,11:52:01,11:52:42,34219,34314,19455.0,19,19460.0,55,19455.0,19465.0,19455.0,19465.0,86,50,19460,40,19465,7
2017-02-13 11:53:00,11:53:00,11:53:00,0,0,0.0,0,0.0,0,19465.0,19465.0,19465.0,19465.0,0,0,0,0,0,0
2017-02-13 11:54:00,11:54:35,11:54:35,34371,34371,19465.0,32,19470.0,51,19465.0,19465.0,19465.0,19465.0,1,-1,19465,31,19470,54
2017-02-13 11:55:00,11:55:23,11:55:34,34376,34384,19465.0,34,19470.0,54,19470.0,19470.0,19470.0,19470.0,11,11,19465,35,19470,48
2017-02-13 11:56:00,11:56:03,11:56:03,34389,34389,19465.0,35,19470.0,51,19470.0,19470.0,19470.0,19470.0,1,1,19465,36,19470,50
2017-02-13 11:57:00,11:57:19,11:57:42,34405,34502,19465.0,35,19470.0,57,19470.0,19470.0,19470.0,19470.0,114,10,19470,8,19475,55
2017-02-13 11:58:00,11:58:00,11:58:00,0,0,0.0,0,0.0,0,19470.0,19470.0,19470.0,19470.0,0,0,0,0,0,0
2017-02-13 11:59:00,11:59:13,11:59:55,34560,34615,19470.0,33,19475.0,55,19475.0,19475.0,19470.0,19470.0,48,-38,19470,21,19475,51
2017-02-13 12:00:00,12:00:20,12:00:31,34639,34650,19470.0,22,19475.0,50,19475.0,19475.0,19475.0,19475.0,14,14,19470,24,19475,41
2017-02-13 12:01:00,12:01:05,12:01:39,34664,34743,19470.0,26,19475.0,46,19470.0,19470.0,19465.0,19465.0,66,-56,19465,11,19470,49
2017-02-13 12:02:00,12:02:27,12:02:59,34771,34789,19465.0,35,19470.0,39,19465.0,19470.0,19465.0,19470.0,9,7,19465,31,19470,26
2017-02-13 12:03:00,12:03:25,12:03:50,34798,34863,19465.0,33,19470.0,34,19470.0,19470.0,19470.0,19470.0,50,8,19465,46,19470,13
2017-02-13 12:04:00,12:04:00,12:04:00,0,0,0.0,0,0.0,0,19470.0,19470.0,19470.0,19470.0,0,0,0,0,0,0
2017-02-13 12:05:00,12:05:00,12:05:00,0,0,0.0,0,0.0,0,19470.0,19470.0,19470.0,19470.0,0,0,0,0,0,0
2017-02-13 12:06:00,12:06:15,12:06:45,34951,34976,19465.0,53,19470.0,49,19470.0,19470.0,19470.0,19470.0,6,6,19465,53,19470,48
2017-02-13 12:07:00,12:07:31,12:07:35,34994,34999,19465.0,63,19470.0,42,19470.0,19470.0,19470.0,19470.0,2,2,19465,63,19470,39
2017-02-13 12:08:00,12:08:02,12:08:25,35011,35033,19465.0,67,19470.0,39,19470.0,19470.0,19470.0,19470.0,8,8,19465,66,19470,26
2017-02-13 12:09:00,12:09:04,12:09:51,35042,35162,19465.0,72,19470.0,34,19470.0,19475.0,19470.0,19470.0,113,19,19465,57,19470,27
2017-02-13 12:10:00,12:10:02,12:10:57,35169,35243,19465.0,60,19470.0,25,19470.0,19470.0,19465.0,19470.0,50,-46,19465,37,19470,48
2017-02-13 12:11:00,12:11:05,12:11:56,35247,35279,19465.0,34,19470.0,48,19465.0,19465.0,19460.0,19460.0,19,-19,19460,51,19465,51
2017-02-13 12:12:00,12:12:27,12:12:27,35291,35291,19460.0,52,19465.0,56,19460.0,19460.0,19460.0,19460.0,1,-1,19460,51,19465,54
2017-02-13 12:13:00,12:13:02,12:13:02,35297,35298,19460.0,58,19465.0,54,19465.0,19465.0,19465.0,19465.0,3,3,19460,59,19465,50
2017-02-13 12:14:00,12:14:48,12:14:51,35314,35347,19460.0,65,19465.0,44,19465.0,19465.0,19465.0,19465.0,46,38,19465,7,19470,51
2017-02-13 12:15:00,12:15:01,12:15:35,35352,35407,19465.0,18,19470.0,51,19465.0,19465.0,19465.0,19465.0,43,-29,19465,1,19470,51
2017-02-13 12:16:00,12:16:00,12:16:00,0,0,0.0,0,0.0,0,19465.0,19465.0,19465.0,19465.0,0,0,0,0,0,0
2017-02-13 12:17:00,12:17:29,12:17:52,35430,35496,19465.0,65,19470.0,23,19470.0,19470.0,19465.0,19465.0,76,-40,19460,55,19465,20
2017-02-13 12:18:00,12:18:18,12:18:18,35522,35522,19460.0,53,19465.0,38,19465.0,19465.0,19465.0,19465.0,1,1,19460,54,19465,37
2017-02-13 12:19:00,12:19:42,12:19:55,35538,35540,19460.0,51,19465.0,50,19465.0,19465.0,19465.0,19465.0,2,2,19460,52,19465,52
2017-02-13 12:20:00,12:20:10,12:20:10,35544,35544,19460.0,52,19465.0,51,19460.0,19460.0,19460.0,19460.0,1,-1,19460,53,19465,49
2017-02-13 12:21:00,12:21:00,12:21:00,0,0,0.0,0,0.0,0,19460.0,19460.0,19460.0,19460.0,0,0,0,0,0,0
2017-02-13 12:22:00,12:22:15,12:22:15,35563,35563,19460.0,56,19465.0,31,19460.0,19460.0,19460.0,19460.0,1,-1,19460,55,19465,30
2017-02-13 12:23:00,12:23:04,12:23:30,35569,35620,19460.0,55,19465.0,32,19465.0,19465.0,19460.0,19460.0,46,6,19460,38,19465,46
2017-02-13 12:24:00,12:24:58,12:24:59,35642,35735,19460.0,51,19465.0,54,19465.0,19470.0,19465.0,19470.0,143,137,19470,24,19475,41
2017-02-13 12:25:00,12:25:00,12:25:00,0,0,0.0,0,0.0,0,19470.0,19470.0,19470.0,19470.0,0,0,0,0,0,0
2017-02-13 12:26:00,12:26:11,12:26:22,35766,35840,19470.0,60,19475.0,24,19475.0,19475.0,19475.0,19475.0,105,84,19470,57,19480,53
2017-02-13 12:27:00,12:27:18,12:27:58,35856,35864,19470.0,61,19475.0,24,19475.0,19475.0,19475.0,19475.0,6,6,19470,58,19475,29
2017-02-13 12:28:00,12:28:01,12:28:01,35867,35874,19470.0,58,19475.0,29,19475.0,19475.0,19475.0,19475.0,15,15,19470,59,19475,12
2017-02-13 12:29:00,12:29:01,12:29:37,35896,35985,19470.0,53,19475.0,43,19475.0,19475.0,19475.0,19475.0,81,21,19475,26,19480,43
2017-02-13 12:30:00,12:30:14,12:30:31,36003,36035,19475.0,35,19480.0,45,19475.0,19475.0,19475.0,19475.0,38,-28,19470,54,19475,37
2017-02-13 12:31:00,12:31:20,12:31:20,36043,36051,19470.0,47,19475.0,44,19475.0,19475.0,19475.0,19475.0,18,18,19470,52,19475,23
2017-02-13 12:32:00,12:32:11,12:32:33,36071,36110,19470.0,51,19475.0,31,19475.0,19475.0,19470.0,19470.0,41,-37,19470,52,19475,33
2017-02-13 12:33:00,12:33:08,12:33:08,36129,36137,19470.0,50,19475.0,35,19470.0,19470.0,19470.0,19470.0,14,-14,19470,39,19475,43
2017-02-13 12:34:00,12:34:24,12:34:53,36153,36212,19470.0,41,19475.0,50,19470.0,19470.0,19460.0,19460.0,57,-57,19460,33,19465,58
2017-02-13 12:35:00,12:35:22,12:35:22,36227,36227,19460.0,43,19465.0,54,19460.0,19460.0,19460.0,19460.0,1,-1,19460,42,19465,53
2017-02-13 12:36:00,12:36:21,12:36:50,36241,36252,19460.0,48,19465.0,50,19460.0,19460.0,19460.0,19460.0,3,-3,19460,53,19465,45
2017-02-13 12:37:00,12:37:19,12:37:54,36258,36288,19460.0,51,19465.0,46,19460.0,19460.0,19460.0,19460.0,41,-41,19460,19,19465,54
2017-02-13 12:38:00,12:38:34,12:38:59,36305,36336,19460.0,32,19465.0,92,19460.0,19460.0,19460.0,19460.0,44,-44,19455,38,19460,56
2017-02-13 12:39:00,12:39:01,12:39:40,36343,36478,19455.0,48,19460.0,57,19460.0,19460.0,19455.0,19460.0,182,114,19455,43,19460,11
2017-02-13 12:40:00,12:40:08,12:40:59,36492,36536,19455.0,41,19460.0,30,19460.0,19460.0,19455.0,19455.0,8,-4,19455,48,19460,34
2017-02-13 12:41:00,12:41:40,12:41:40,36556,36561,19455.0,37,19460.0,51,19455.0,19455.0,19455.0,19455.0,6,-6,19455,34,19460,50
2017-02-13 12:42:00,12:42:14,12:42:38,36571,36653,19455.0,32,19460.0,51,19455.0,19455.0,19450.0,19450.0,102,40,19450,134,19455,34
2017-02-13 12:43:00,12:43:51,12:43:51,36684,36704,19450.0,135,19455.0,16,19455.0,19455.0,19455.0,19455.0,30,18,19455,30,19460,49
2017-02-13 12:44:00,12:44:29,12:44:29,36720,36743,19455.0,30,19460.0,51,19455.0,19455.0,19455.0,19455.0,31,-31,19450,124,19455,19
2017-02-13 12:45:00,12:45:13,12:45:13,36764,36764,19450.0,128,19455.0,38,19450.0,19450.0,19450.0,19450.0,1,-1,19450,126,19455,47
2017-02-13 12:46:00,12:46:04,12:46:04,36781,36781,19450.0,127,19455.0,37,19450.0,19450.0,19450.0,19450.0,2,-2,19450,125,19455,41
2017-02-13 12:47:00,12:47:02,12:47:56,36810,36889,19450.0,126,19455.0,59,19450.0,19460.0,19450.0,19460.0,93,61,19455,52,19460,34
2017-02-13 12:48:00,12:48:00,12:48:56,36899,36992,19455.0,28,19460.0,53,19455.0,19460.0,19455.0,19460.0,89,19,19455,56,19465,63
2017-02-13 12:49:00,12:49:00,12:49:00,0,0,0.0,0,0.0,0,19460.0,19460.0,19460.0,19460.0,0,0,0,0,0,0
2017-02-13 12:50:00,12:50:25,12:50:32,37029,37069,19460.0,10,19465.0,60,19465.0,19465.0,19460.0,19460.0,32,6,19460,13,19465,63
2017-02-13 12:51:00,12:51:04,12:51:35,37083,37118,19460.0,45,19465.0,56,19460.0,19460.0,19460.0,19460.0,38,-38,19455,59,19460,7
2017-02-13 12:52:00,12:52:08,12:52:14,37147,37187,19455.0,38,19460.0,49,19455.0,19455.0,19455.0,19455.0,57,-51,19450,116,19455,29
2017-02-13 12:53:00,12:53:34,12:53:34,37212,37222,19450.0,117,19455.0,25,19455.0,19455.0,19455.0,19455.0,24,24,19455,44,19460,42
2017-02-13 12:54:00,12:54:00,12:54:00,0,0,0.0,0,0.0,0,19455.0,19455.0,19455.0,19455.0,0,0,0,0,0,0
2017-02-13 12:55:00,12:55:03,12:55:31,37253,37295,19455.0,38,19460.0,57,19455.0,19455.0,19455.0,19455.0,37,3,19450,116,19455,11
2017-02-13 12:56:00,12:56:06,12:56:12,37320,37329,19450.0,110,19455.0,8,19455.0,19455.0,19455.0,19455.0,13,13,19455,31,19460,58
2017-02-13 12:57:00,12:57:00,12:57:00,0,0,0.0,0,0.0,0,19455.0,19455.0,19455.0,19455.0,0,0,0,0,0,0
2017-02-13 12:58:00,12:58:22,12:58:22,37353,37378,19455.0,41,19460.0,56,19460.0,19460.0,19460.0,19460.0,41,41,19455,51,19460,33
2017-02-13 12:59:00,12:59:55,12:59:55,37409,37409,19455.0,57,19460.0,33,19460.0,19460.0,19460.0,19460.0,1,1,19455,56,19460,34
2017-02-13 13:00:00,13:00:00,13:00:57,37414,37504,19455.0,60,19460.0,28,19460.0,19460.0,19455.0,19460.0,61,17,19455,58,19460,31
2017-02-13 13:01:00,13:01:03,13:01:50,37508,37598,19455.0,59,19460.0,31,19455.0,19465.0,19455.0,19460.0,76,-14,19455,36,19460,43
2017-02-13 13:02:00,13:02:00,13:02:00,0,0,0.0,0,0.0,0,19460.0,19460.0,19460.0,19460.0,0,0,0,0,0,0
2017-02-13 13:03:00,13:03:00,13:03:24,37648,37710,19455.0,18,19460.0,56,19455.0,19455.0,19455.0,19455.0,58,31,19455,23,19460,53
2017-02-13 13:04:00,13:04:00,13:04:00,0,0,0.0,0,0.0,0,19455.0,19455.0,19455.0,19455.0,0,0,0,0,0,0
2017-02-13 13:05:00,13:05:11,13:05:33,37748,37788,19455.0,45,19460.0,33,19460.0,19460.0,19455.0,19455.0,19,17,19455,45,19460,43
2017-02-13 13:06:00,13:06:29,13:06:50,37819,37857,19455.0,58,19460.0,38,19460.0,19460.0,19460.0,19460.0,44,28,19455,60,19460,33
2017-02-13 13:07:00,13:07:25,13:07:56,37863,37923,19455.0,62,19460.0,36,19460.0,19460.0,19460.0,19460.0,30,-6,19455,67,19460,9
2017-02-13 13:08:00,13:08:01,13:08:51,37929,37970,19455.0,68,19460.0,15,19460.0,19465.0,19460.0,19465.0,9,9,19455,61,19465,66
2017-02-13 13:09:00,13:09:01,13:09:42,37972,38008,19455.0,67,19465.0,66,19465.0,19465.0,19460.0,19460.0,5,5,19455,67,19460,10
2017-02-13 13:10:00,13:10:12,13:10:53,38027,38051,19455.0,72,19460.0,29,19460.0,19460.0,19460.0,19460.0,4,4,19455,74,19460,22
2017-02-13 13:11:00,13:11:11,13:11:53,38065,38138,19455.0,78,19460.0,14,19460.0,19460.0,19460.0,19460.0,50,-22,19455,57,19460,23
2017-02-13 13:12:00,13:12:00,13:12:00,0,0,0.0,0,0.0,0,19460.0,19460.0,19460.0,19460.0,0,0,0,0,0,0
2017-02-13 13:13:00,13:13:13,13:13:49,38167,38189,19455.0,60,19460.0,34,19460.0,19460.0,19460.0,19460.0,7,7,19455,61,19460,15
2017-02-13 13:14:00,13:14:00,13:14:58,38202,38253,19455.0,55,19460.0,41,19460.0,19460.0,19460.0,19460.0,15,15,19455,51,19460,49
2017-02-13 13:15:00,13:15:06,13:15:57,38257,38314,19455.0,51,19460.0,50,19460.0,19460.0,19455.0,19460.0,25,23,19455,52,19460,54
2017-02-13 13:16:00,13:16:00,13:16:57,38321,38470,19455.0,54,19460.0,58,19460.0,19465.0,19455.0,19465.0,156,-6,19460,42,19465,68
2017-02-13 13:17:00,13:17:06,13:17:57,38479,38561,19460.0,54,19465.0,65,19465.0,19465.0,19465.0,19465.0,55,55,19460,56,19465,32
2017-02-13 13:18:00,13:18:07,13:18:59,38567,38714,19460.0,57,19465.0,28,19465.0,19475.0,19465.0,19475.0,117,17,19470,57,19475,35
2017-02-13 13:19:00,13:19:00,13:19:58,38721,38860,19470.0,59,19475.0,31,19475.0,19475.0,19470.0,19475.0,118,-40,19470,39,19475,22
2017-02-13 13:20:00,13:20:07,13:20:57,38867,38921,19470.0,41,19475.0,37,19475.0,19475.0,19475.0,19475.0,13,13,19470,38,19475,59
2017-02-13 13:21:00,13:21:07,13:21:57,38931,39004,19470.0,51,19475.0,57,19475.0,19475.0,19470.0,19475.0,20,18,19470,36,19475,66
2017-02-13 13:22:00,13:22:07,13:22:57,39012,39060,19470.0,40,19475.0,67,19475.0,19475.0,19475.0,19475.0,16,16,19470,47,19475,62
2017-02-13 13:23:00,13:23:07,13:23:57,39068,39118,19470.0,53,19475.0,62,19475.0,19475.0,19475.0,19475.0,15,15,19470,56,19475,40
2017-02-13 13:24:00,13:24:04,13:24:56,39127,39289,19470.0,69,19475.0,37,19475.0,19480.0,19475.0,19475.0,139,61,19470,56,19475,5
2017-02-13 13:25:00,13:25:02,13:25:57,39298,39368,19470.0,58,19475.0,18,19475.0,19475.0,19470.0,19475.0,18,16,19470,67,19475,23
2017-02-13 13:26:00,13:26:00,13:26:57,39372,39441,19470.0,69,19475.0,23,19475.0,19475.0,19475.0,19475.0,18,18,19470,62,19475,28
2017-02-13 13:27:00,13:27:04,13:27:57,39451,39534,19470.0,56,19475.0,39,19475.0,19475.0,19475.0,19475.0,49,49,19470,58,19475,40
2017-02-13 13:28:00,13:28:00,13:28:59,39538,39632,19470.0,59,19475.0,40,19475.0,19475.0,19475.0,19475.0,33,29,19470,70,19475,42
2017-02-13 13:29:00,13:29:06,13:29:57,39635,39783,19470.0,70,19475.0,42,19475.0,19475.0,19470.0,19470.0,150,10,19465,44,19470,43
2017-02-13 13:30:00,13:30:02,13:30:57,39792,39941,19465.0,38,19470.0,45,19470.0,19475.0,19470.0,19470.0,120,-12,19465,38,19470,53
2017-02-13 13:31:00,13:31:07,13:31:55,39951,40104,19465.0,44,19470.0,53,19470.0,19470.0,19465.0,19465.0,162,-10,19465,40,19470,50
2017-02-13 13:32:00,13:32:02,13:32:57,40119,40188,19465.0,40,19470.0,41,19470.0,19470.0,19470.0,19470.0,48,48,19465,50,19470,49
2017-02-13 13:33:00,13:33:05,13:33:57,40195,40251,19465.0,50,19470.0,56,19470.0,19470.0,19465.0,19470.0,22,4,19465,41,19470,55
2017-02-13 13:34:00,13:34:06,13:34:59,40257,40379,19465.0,43,19470.0,55,19470.0,19470.0,19465.0,19465.0,111,-11,19460,55,19465,22
2017-02-13 13:35:00,13:35:07,13:35:59,40384,40454,19460.0,58,19465.0,24,19465.0,19470.0,19465.0,19465.0,42,41,19465,5,19470,73
2017-02-13 13:36:00,13:36:00,13:36:57,40455,40515,19460.0,50,19465.0,2,19465.0,19470.0,19465.0,19465.0,30,-8,19460,48,19465,3
2017-02-13 13:37:00,13:37:00,13:37:58,40519,40828,19460.0,50,19465.0,3,19465.0,19465.0,19445.0,19445.0,380,-230,19445,27,19450,49
2017-02-13 13:38:00,13:38:01,13:38:59,40835,41187,19445.0,32,19450.0,49,19450.0,19450.0,19435.0,19440.0,504,-234,19440,50,19445,72
2017-02-13 13:39:00,13:39:07,13:39:58,41197,41366,19440.0,71,19445.0,72,19445.0,19445.0,19440.0,19440.0,181,-13,19440,76,19445,16
2017-02-13 13:40:00,13:40:05,13:40:56,41377,41521,19440.0,78,19445.0,11,19445.0,19450.0,19440.0,19445.0,134,-24,19445,13,19450,68
2017-02-13 13:41:00,13:41:07,13:41:57,41536,41586,19445.0,59,19450.0,65,19450.0,19450.0,19450.0,19450.0,17,17,19445,75,19450,60
2017-02-13 13:42:00,13:42:01,13:42:57,41591,41665,19445.0,74,19450.0,60,19450.0,19450.0,19445.0,19450.0,38,-18,19445,69,19450,61
2017-02-13 13:43:00,13:43:01,13:43:57,41670,41733,19445.0,58,19450.0,68,19445.0,19450.0,19445.0,19450.0,34,10,19445,64,19450,34
2017-02-13 13:44:00,13:44:00,13:44:57,41739,41816,19445.0,66,19450.0,39,19450.0,19450.0,19450.0,19450.0,23,23,19445,58,19450,62
2017-02-13 13:45:00,13:45:00,13:45:52,41825,42109,19445.0,75,19450.0,55,19450.0,19460.0,19450.0,19455.0,344,146,19455,53,19460,66
2017-02-13 13:46:00,13:46:01,13:46:59,42118,42334,19455.0,49,19460.0,72,19460.0,19460.0,19450.0,19450.0,354,-276,19445,66,19450,1
2017-02-13 13:47:00,13:47:00,13:47:44,42337,42411,19445.0,66,19450.0,1,19450.0,19455.0,19450.0,19455.0,58,10,19450,91,19455,57
2017-02-13 13:48:00,13:48:05,13:48:59,42415,42524,19450.0,100,19455.0,57,19455.0,19460.0,19455.0,19460.0,92,78,19455,69,19460,63
2017-02-13 13:49:00,13:49:28,13:49:46,42543,42568,19455.0,85,19460.0,64,19460.0,19460.0,19460.0,19460.0,15,15,19455,108,19460,71
2017-02-13 13:50:00,13:50:00,13:50:57,42579,42817,19455.0,113,19460.0,45,19460.0,19470.0,19460.0,19470.0,299,214,19465,141,19470,42
2017-02-13 13:51:00,13:51:16,13:51:56,42836,42992,19465.0,134,19470.0,63,19470.0,19470.0,19460.0,19460.0,303,-23,19460,32,19465,111
2017-02-13 13:52:00,13:52:01,13:52:59,43001,43243,19460.0,21,19465.0,112,19465.0,19470.0,19460.0,19465.0,260,28,19465,47,19470,75
2017-02-13 13:53:00,13:53:00,13:53:49,43246,43307,19465.0,47,19470.0,75,19465.0,19470.0,19465.0,19470.0,45,-11,19465,47,19470,64
2017-02-13 13:54:00,13:54:00,13:54:57,43322,43414,19465.0,49,19470.0,66,19465.0,19465.0,19460.0,19465.0,73,-55,19460,82,19465,67
2017-02-13 13:55:00,13:55:09,13:55:59,43426,43673,19460.0,87,19465.0,70,19465.0,19465.0,19455.0,19455.0,284,-84,19455,21,19460,74
2017-02-13 13:56:00,13:56:00,13:56:57,43677,43890,19455.0,13,19460.0,74,19455.0,19465.0,19450.0,19465.0,282,144,19460,64,19465,77
2017-02-13 13:57:00,13:57:00,13:57:56,43896,44240,19460.0,71,19465.0,77,19465.0,19465.0,19450.0,19455.0,638,-446,19450,85,19455,28
2017-02-13 13:58:00,13:58:12,13:58:58,44264,44453,19450.0,95,19455.0,14,19455.0,19460.0,19450.0,19455.0,247,-69,19450,84,19455,5
2017-02-13 13:59:00,13:59:00,13:59:59,44457,44784,19450.0,84,19455.0,4,19450.0,19450.0,19445.0,19450.0,351,-15,19445,46,19450,38
2017-02-13 14:00:00,14:00:00,14:00:59,44785,45220,19445.0,87,19450.0,47,19445.0,19455.0,19440.0,19455.0,631,279,19450,238,19455,55
2017-02-13 14:01:00,14:01:00,14:01:59,45223,45526,19450.0,238,19455.0,55,19455.0,19455.0,19445.0,19445.0,565,-315,19440,175,19445,24
2017-02-13 14:02:00,14:02:00,14:02:55,45530,45843,19440.0,175,19445.0,40,19440.0,19445.0,19430.0,19435.0,611,-303,19435,38,19440,107
2017-02-13 14:03:00,14:03:02,14:03:56,45852,46152,19435.0,55,19440.0,106,19435.0,19435.0,19425.0,19430.0,544,-192,19430,48,19435,95
2017-02-13 14:04:00,14:04:00,14:04:58,46162,46357,19430.0,54,19435.0,117,19430.0,19435.0,19425.0,19430.0,287,-136,19430,76,19435,57
2017-02-13 14:05:00,14:05:08,14:05:59,46382,46571,19430.0,95,19435.0,59,19435.0,19440.0,19430.0,19435.0,279,-49,19430,102,19435,36
2017-02-13 14:06:00,14:06:00,14:06:49,46574,46774,19430.0,102,19435.0,36,19435.0,19440.0,19435.0,19435.0,211,-51,19435,83,19440,91
2017-02-13 14:07:00,14:07:07,14:07:55,46789,46862,19435.0,79,19440.0,89,19440.0,19440.0,19430.0,19430.0,130,-46,19430,73,19435,80
2017-02-13 14:08:00,14:08:03,14:08:32,46872,47051,19430.0,69,19435.0,86,19435.0,19440.0,19435.0,19440.0,267,177,19435,37,19440,39
2017-02-13 14:09:00,14:09:04,14:09:59,47082,47448,19435.0,39,19440.0,66,19435.0,19435.0,19410.0,19415.0,636,-365,19415,1,19420,35
