,ST,ET,sidx,eidx,bB,bBS,bA,bAS,O,H,L,C,V,OF,eB,eBS,eA,eAS
2016-12-19 08:00:00,08:00:00,08:00:58,1719,2158,19290.0,29,19295.0,25,19295.0,19315.0,19285.0,19315.0,589,288,19310,30,19315,36
2016-12-19 08:01:00,08:01:00,08:01:58,2160,2342,19310.0,31,19315.0,36,19315.0,19315.0,19300.0,19305.0,184,-144,19300,23,19305,46
2016-12-19 08:02:00,08:02:01,08:02:57,2351,2673,19300.0,20,19305.0,75,19300.0,19310.0,19295.0,19305.0,383,57,19300,26,19305,46
2016-12-19 08:03:00,08:03:01,08:03:50,2683,2831,19300.0,33,19305.0,57,19305.0,19315.0,19305.0,19310.0,207,91,19310,24,19315,34
2016-12-19 08:04:00,08:04:00,08:04:58,2839,3009,19310.0,41,19315.0,34,19310.0,19315.0,19305.0,19305.0,140,-92,19300,33,19305,26
2016-12-19 08:05:00,08:05:19,08:05:53,3036,3203,19300.0,41,19305.0,29,19300.0,19305.0,19295.0,19300.0,203,57,19300,38,19305,30
2016-12-19 08:06:00,08:06:04,08:06:55,3219,3383,19300.0,32,19305.0,38,19300.0,19310.0,19300.0,19305.0,126,44,19300,23,19305,44
2016-12-19 08:07:00,08:07:03,08:07:45,3397,3653,19300.0,24,19305.0,35,19300.0,19315.0,19295.0,19315.0,275,76,19310,3,19315,47
2016-12-19 08:08:00,08:08:02,08:08:52,3674,3836,19310.0,27,19315.0,42,19310.0,19310.0,19310.0,19310.0,153,-91,19310,19,19315,44
2016-12-19 08:09:00,08:09:00,08:09:35,3849,3965,19310.0,7,19315.0,49,19310.0,19315.0,19310.0,19315.0,101,7,19315,26,19320,37
2016-12-19 08:10:00,08:10:02,08:10:58,4001,4151,19315.0,25,19320.0,54,19315.0,19325.0,19315.0,19325.0,161,107,19320,38,19325,40
2016-12-19 08:11:00,08:11:03,08:11:41,4162,4280,19320.0,39,19325.0,44,19320.0,19325.0,19320.0,19320.0,110,-106,19320,8,19325,49
2016-12-19 08:12:00,08:12:09,08:12:56,4320,4461,19320.0,23,19325.0,55,19320.0,19325.0,19315.0,19325.0,103,-81,19320,26,19325,43
2016-12-19 08:13:00,08:13:01,08:13:59,4469,4910,19320.0,23,19325.0,51,19320.0,19345.0,19320.0,19340.0,579,262,19340,11,19345,42
2016-12-19 08:14:00,08:14:01,08:14:57,4915,5090,19340.0,12,19345.0,44,19340.0,19340.0,19335.0,19340.0,159,21,19340,39,19345,39
2016-12-19 08:15:00,08:15:00,08:15:56,5096,5330,19340.0,32,19345.0,40,19340.0,19345.0,19330.0,19330.0,211,-164,19325,43,19335,40
2016-12-19 08:16:00,08:16:01,08:16:52,5334,5513,19330.0,7,19335.0,40,19330.0,19330.0,19320.0,19325.0,161,3,19325,12,19330,39
2016-12-19 08:17:00,08:17:01,08:17:47,5520,5646,19325.0,9,19330.0,44,19325.0,19330.0,19320.0,19330.0,100,-12,19325,21,19330,39
2016-12-19 08:18:00,08:18:01,08:18:59,5659,5872,19325.0,29,19330.0,38,19330.0,19330.0,19325.0,19330.0,150,108,19325,23,19330,30
2016-12-19 08:19:00,08:19:00,08:19:52,5875,6164,19325.0,23,19330.0,30,19325.0,19325.0,19315.0,19320.0,376,104,19315,41,19320,13
2016-12-19 08:20:00,08:20:00,08:20:57,6173,6383,19315.0,41,19320.0,29,19320.0,19320.0,19305.0,19310.0,182,30,19305,56,19310,7
2016-12-19 08:21:00,08:21:05,08:21:59,6406,6620,19305.0,32,19310.0,45,19305.0,19315.0,19305.0,19315.0,170,24,19310,6,19315,57
2016-12-19 08:22:00,08:22:03,08:22:54,6624,6787,19310.0,6,19315.0,60,19310.0,19315.0,19305.0,19305.0,108,-42,19305,28,19310,33
2016-12-19 08:23:00,08:23:02,08:23:45,6802,6933,19305.0,35,19310.0,46,19310.0,19315.0,19305.0,19310.0,96,42,19305,40,19310,27
2016-12-19 08:24:00,08:24:03,08:24:54,6944,7050,19305.0,40,19310.0,31,19310.0,19320.0,19310.0,19320.0,58,58,19315,16,19320,78
2016-12-19 08:25:00,08:25:03,08:25:59,7063,7198,19315.0,24,19320.0,84,19315.0,19320.0,19310.0,19320.0,130,22,19320,14,19325,41
2016-12-19 08:26:00,08:26:03,08:26:30,7204,7282,19320.0,17,19325.0,47,19320.0,19325.0,19320.0,19325.0,96,84,19325,28,19330,55
2016-12-19 08:27:00,08:27:06,08:27:54,7316,7471,19325.0,47,19330.0,57,19330.0,19330.0,19325.0,19330.0,138,60,19325,50,19330,35
2016-12-19 08:28:00,08:28:17,08:28:26,7479,7507,19325.0,50,19330.0,36,19330.0,19330.0,19330.0,19330.0,30,20,19325,63,19330,15
2016-12-19 08:29:00,08:29:18,08:29:49,7551,7655,19325.0,59,19330.0,20,19330.0,19330.0,19320.0,19320.0,131,-79,19320,23,19325,33
2016-12-19 08:30:00,08:30:03,08:30:52,7671,7771,19320.0,18,19325.0,34,19320.0,19320.0,19315.0,19320.0,67,-9,19320,44,19325,24
2016-12-19 08:31:00,08:31:08,08:31:45,7794,7817,19320.0,43,19325.0,31,19320.0,19325.0,19320.0,19320.0,3,-1,19320,43,19325,38
2016-12-19 08:32:00,08:32:02,08:32:51,7821,7962,19320.0,43,19325.0,41,19320.0,19320.0,19310.0,19310.0,126,-98,19310,35,19315,35
2016-12-19 08:33:00,08:33:01,08:33:44,7967,8109,19310.0,44,19315.0,35,19315.0,19315.0,19310.0,19315.0,99,-23,19310,45,19315,19
2016-12-19 08:34:00,08:34:07,08:34:52,8137,8272,19310.0,48,19315.0,18,19315.0,19315.0,19310.0,19310.0,98,-32,19310,14,19315,58
2016-12-19 08:35:00,08:35:00,08:35:54,8287,8352,19310.0,31,19315.0,44,19310.0,19320.0,19310.0,19320.0,47,33,19315,34,19320,34
2016-12-19 08:36:00,08:36:03,08:36:38,8363,8414,19315.0,40,19320.0,30,19320.0,19325.0,19320.0,19325.0,20,20,19320,39,19325,32
2016-12-19 08:37:00,08:37:02,08:37:56,8427,8609,19320.0,47,19325.0,29,19325.0,19330.0,19310.0,19315.0,152,-96,19310,15,19315,38
2016-12-19 08:38:00,08:38:06,08:38:55,8620,8694,19310.0,11,19315.0,50,19310.0,19315.0,19310.0,19315.0,43,17,19315,21,19320,55
2016-12-19 08:39:00,08:39:07,08:39:45,8708,8819,19315.0,29,19320.0,68,19315.0,19315.0,19310.0,19315.0,113,-23,19315,20,19320,74
2016-12-19 08:40:00,08:40:15,08:40:55,8836,8911,19315.0,19,19320.0,81,19315.0,19315.0,19310.0,19310.0,57,-35,19310,10,19315,42
2016-12-19 08:41:00,08:41:04,08:41:54,8926,9020,19310.0,17,19315.0,52,19310.0,19310.0,19305.0,19305.0,57,23,19305,41,19310,47
2016-12-19 08:42:00,08:42:02,08:42:56,9026,9148,19305.0,41,19310.0,44,19305.0,19310.0,19305.0,19305.0,73,35,19305,41,19310,29
2016-12-19 08:43:00,08:43:13,08:43:58,9161,9240,19305.0,55,19310.0,19,19310.0,19315.0,19305.0,19315.0,73,-33,19310,20,19315,48
2016-12-19 08:44:00,08:44:03,08:44:52,9248,9335,19310.0,24,19315.0,46,19315.0,19315.0,19305.0,19310.0,95,-37,19305,42,19315,42
2016-12-19 08:45:00,08:45:16,08:45:26,9364,9417,19310.0,18,19315.0,54,19315.0,19320.0,19315.0,19320.0,44,44,19315,17,19320,73
2016-12-19 08:46:00,08:46:00,08:46:52,9441,9557,19315.0,18,19320.0,71,19315.0,19320.0,19315.0,19315.0,101,17,19310,42,19315,22
2016-12-19 08:47:00,08:47:06,08:47:14,9577,9609,19310.0,20,19315.0,36,19310.0,19310.0,19305.0,19310.0,45,-9,19310,5,19315,37
2016-12-19 08:48:00,08:48:04,08:48:39,9633,9701,19310.0,16,19315.0,47,19310.0,19315.0,19305.0,19315.0,66,38,19315,13,19320,83
2016-12-19 08:49:00,08:49:06,08:49:45,9726,9800,19315.0,26,19320.0,67,19320.0,19320.0,19315.0,19315.0,65,-21,19310,38,19315,6
2016-12-19 08:50:00,08:50:00,08:50:29,9813,9881,19310.0,40,19315.0,4,19310.0,19320.0,19310.0,19315.0,54,-26,19310,33,19315,11
2016-12-19 08:51:00,08:51:14,08:51:55,9905,10005,19310.0,34,19315.0,35,19315.0,19320.0,19315.0,19315.0,110,20,19315,27,19320,33
2016-12-19 08:52:00,08:52:46,08:52:46,10031,10031,19315.0,32,19320.0,36,19320.0,19320.0,19320.0,19320.0,1,1,19315,31,19320,35
2016-12-19 08:53:00,08:53:01,08:53:44,10046,10084,19315.0,25,19320.0,36,19320.0,19320.0,19320.0,19320.0,8,8,19315,29,19320,38
2016-12-19 08:54:00,08:54:00,08:54:58,10094,10203,19315.0,17,19320.0,42,19315.0,19320.0,19315.0,19320.0,86,56,19315,46,19320,1
2016-12-19 08:55:00,08:55:25,08:55:50,10233,10310,19320.0,10,19325.0,45,19320.0,19325.0,19320.0,19320.0,67,-59,19320,9,19325,49
2016-12-19 08:56:00,08:56:00,08:56:59,10320,10446,19320.0,6,19325.0,46,19320.0,19325.0,19315.0,19320.0,107,10,19315,42,19320,49
2016-12-19 08:57:00,08:57:09,08:57:42,10450,10513,19315.0,42,19320.0,50,19320.0,19320.0,19310.0,19310.0,65,-59,19310,19,19315,51
2016-12-19 08:58:00,08:58:00,08:58:56,10527,10597,19310.0,20,19315.0,52,19315.0,19315.0,19310.0,19315.0,49,19,19310,45,19315,15
2016-12-19 08:59:00,08:59:10,08:59:35,10616,10639,19310.0,40,19315.0,35,19315.0,19315.0,19310.0,19310.0,6,2,19310,36,19315,42
2016-12-19 09:00:00,09:00:06,09:00:50,10651,10858,19310.0,39,19315.0,42,19315.0,19315.0,19310.0,19315.0,186,54,19315,6,19320,53
2016-12-19 09:01:00,09:01:16,09:01:48,10883,10930,19315.0,34,19320.0,47,19320.0,19320.0,19320.0,19320.0,42,28,19320,26,19325,35
2016-12-19 09:02:00,09:02:18,09:02:51,10953,10993,19320.0,35,19325.0,48,19325.0,19325.0,19320.0,19320.0,28,-22,19320,11,19325,46
2016-12-19 09:03:00,09:03:02,09:03:51,11004,11152,19320.0,27,19325.0,40,19325.0,19325.0,19310.0,19310.0,133,-127,19305,37,19310,13
2016-12-19 09:04:00,09:04:09,09:04:55,11189,11265,19305.0,37,19310.0,29,19310.0,19310.0,19305.0,19305.0,64,-6,19300,54,19305,15
2016-12-19 09:05:00,09:05:18,09:05:53,11294,11423,19300.0,55,19305.0,26,19300.0,19300.0,19290.0,19295.0,138,-72,19290,41,19295,12
2016-12-19 09:06:00,09:06:09,09:06:59,11454,11695,19290.0,43,19295.0,37,19290.0,19300.0,19290.0,19300.0,233,60,19295,41,19300,10
2016-12-19 09:07:00,09:07:01,09:07:19,11701,11757,19295.0,41,19300.0,19,19300.0,19300.0,19290.0,19295.0,41,-13,19295,15,19300,54
2016-12-19 09:08:00,09:08:10,09:08:53,11816,11980,19295.0,41,19300.0,51,19300.0,19300.0,19295.0,19295.0,144,-75,19295,2,19300,73
2016-12-19 09:09:00,09:09:27,09:09:45,12001,12084,19295.0,23,19300.0,77,19300.0,19305.0,19295.0,19295.0,139,-21,19295,56,19300,22
2016-12-19 09:10:00,09:10:01,09:10:20,12101,12133,19295.0,35,19300.0,43,19295.0,19295.0,19295.0,19295.0,45,-29,19290,82,19295,30
2016-12-19 09:11:00,09:11:06,09:11:35,12164,12219,19290.0,82,19295.0,38,19295.0,19295.0,19285.0,19285.0,100,-78,19285,4,19290,54
2016-12-19 09:12:00,09:12:16,09:12:59,12247,12383,19285.0,30,19290.0,63,19285.0,19290.0,19285.0,19285.0,179,-37,19280,65,19285,27
2016-12-19 09:13:00,09:13:33,09:13:39,12430,12466,19280.0,66,19285.0,53,19285.0,19290.0,19285.0,19290.0,48,36,19285,27,19290,51
2016-12-19 09:14:00,09:14:01,09:14:55,12481,12682,19285.0,29,19290.0,50,19290.0,19290.0,19280.0,19285.0,239,-47,19285,34,19290,56
2016-12-19 09:15:00,09:15:00,09:15:45,12690,12816,19285.0,34,19290.0,51,19285.0,19300.0,19285.0,19295.0,99,5,19290,56,19295,34
2016-12-19 09:16:00,09:16:10,09:16:53,12835,12883,19290.0,52,19295.0,53,19295.0,19300.0,19295.0,19300.0,67,67,19295,55,19300,69
2016-12-19 09:17:00,09:17:01,09:17:40,12890,12990,19295.0,56,19300.0,69,19300.0,19300.0,19285.0,19285.0,79,-67,19285,28,19290,55
2016-12-19 09:18:00,09:18:00,09:18:47,13006,13145,19285.0,25,19290.0,58,19285.0,19290.0,19285.0,19285.0,113,49,19285,18,19290,42
2016-12-19 09:19:00,09:19:00,09:19:59,13168,13326,19285.0,38,19290.0,42,19285.0,19295.0,19285.0,19295.0,106,60,19290,57,19295,2
2016-12-19 09:20:00,09:20:03,09:20:25,13332,13404,19290.0,56,19295.0,5,19295.0,19300.0,19295.0,19295.0,91,-61,19295,15,19300,57
2016-12-19 09:21:00,09:21:00,09:21:54,13447,13511,19295.0,32,19300.0,49,19295.0,19300.0,19295.0,19300.0,9,-5,19295,38,19300,49
2016-12-19 09:22:00,09:22:05,09:22:39,13523,13681,19295.0,31,19300.0,50,19300.0,19300.0,19300.0,19300.0,176,138,19295,41,19300,31
2016-12-19 09:23:00,09:23:15,09:23:28,13728,13783,19295.0,83,19300.0,30,19300.0,19300.0,19300.0,19300.0,53,39,19295,60,19300,27
2016-12-19 09:24:00,09:24:02,09:24:56,13835,14044,19295.0,78,19300.0,32,19295.0,19295.0,19285.0,19290.0,180,-44,19290,11,19295,65
2016-12-19 09:25:00,09:25:00,09:25:56,14057,14295,19290.0,18,19295.0,58,19290.0,19295.0,19285.0,19290.0,202,44,19290,30,19295,37
2016-12-19 09:26:00,09:26:00,09:26:43,14306,14404,19290.0,30,19295.0,48,19290.0,19290.0,19290.0,19290.0,78,-28,19290,7,19295,44
2016-12-19 09:27:00,09:27:16,09:27:39,14439,14492,19290.0,43,19295.0,52,19295.0,19295.0,19295.0,19295.0,49,19,19290,56,19295,10
2016-12-19 09:28:00,09:28:01,09:28:28,14518,14576,19290.0,47,19295.0,23,19295.0,19295.0,19295.0,19295.0,34,0,19295,18,19300,46
2016-12-19 09:29:00,09:29:01,09:29:52,14603,14716,19295.0,37,19300.0,39,19295.0,19300.0,19295.0,19300.0,75,-14,19295,52,19300,8
2016-12-19 09:30:00,09:30:00,09:30:29,14723,14827,19300.0,12,19305.0,57,19300.0,19300.0,19290.0,19295.0,97,-45,19295,5,19300,52
2016-12-19 09:31:00,09:31:00,09:31:48,14855,14938,19290.0,38,19295.0,28,19290.0,19295.0,19285.0,19290.0,77,-27,19285,31,19290,15
2016-12-19 09:32:00,09:32:04,09:32:57,14961,15142,19285.0,25,19290.0,31,19285.0,19290.0,19285.0,19290.0,173,142,19285,84,19290,27
2016-12-19 09:33:00,09:33:15,09:33:55,15156,15314,19285.0,83,19290.0,52,19290.0,19290.0,19285.0,19285.0,198,-80,19285,10,19290,54
2016-12-19 09:34:00,09:34:00,09:34:59,15326,15610,19285.0,16,19290.0,63,19285.0,19285.0,19255.0,19270.0,391,-303,19270,13,19275,33
2016-12-19 09:35:00,09:35:04,09:35:52,15625,15862,19270.0,18,19275.0,53,19270.0,19275.0,19265.0,19275.0,235,11,19275,5,19280,77
2016-12-19 09:36:00,09:36:00,09:36:37,15877,16003,19275.0,4,19280.0,79,19275.0,19285.0,19275.0,19280.0,136,44,19275,70,19285,62
2016-12-19 09:37:00,09:37:00,09:37:46,16023,16200,19275.0,58,19280.0,44,19275.0,19275.0,19270.0,19275.0,180,-70,19275,17,19280,55
2016-12-19 09:38:00,09:38:02,09:38:53,16207,16323,19275.0,13,19280.0,55,19275.0,19275.0,19275.0,19275.0,75,5,19275,15,19280,45
2016-12-19 09:39:00,09:39:00,09:39:20,16334,16369,19275.0,18,19280.0,46,19275.0,19275.0,19275.0,19275.0,15,-15,19270,58,19275,6
2016-12-19 09:40:00,09:40:00,09:40:59,16405,16517,19270.0,54,19275.0,28,19270.0,19275.0,19270.0,19275.0,85,27,19275,10,19280,49
2016-12-19 09:41:00,09:41:00,09:41:59,16521,16640,19275.0,17,19280.0,49,19275.0,19280.0,19275.0,19280.0,80,50,19280,6,19285,39
2016-12-19 09:42:00,09:42:00,09:42:50,16643,16752,19280.0,6,19285.0,39,19280.0,19285.0,19280.0,19285.0,71,-10,19280,26,19285,54
2016-12-19 09:43:00,09:43:00,09:43:00,0,0,0.0,0,0.0,0,19285.0,19285.0,19285.0,19285.0,0,0,0,0,0,0
2016-12-19 09:44:00,09:44:00,09:44:51,16800,16884,19280.0,34,19285.0,40,19280.0,19285.0,19280.0,19280.0,58,-52,19280,23,19285,96
2016-12-19 09:45:00,09:45:06,09:45:42,16893,16982,19280.0,22,19285.0,100,19280.0,19285.0,19280.0,19285.0,114,-48,19280,47,19285,32
2016-12-19 09:46:00,09:46:08,09:46:59,17005,17116,19280.0,41,19285.0,39,19285.0,19285.0,19285.0,19285.0,77,23,19285,6,19290,65
2016-12-19 09:47:00,09:47:10,09:47:57,17132,17222,19285.0,20,19290.0,64,19290.0,19290.0,19285.0,19285.0,79,-13,19280,54,19290,63
2016-12-19 09:48:00,09:48:43,09:48:43,17249,17292,19285.0,29,19290.0,60,19290.0,19290.0,19290.0,19290.0,65,65,19285,58,19290,10
2016-12-19 09:49:00,09:49:21,09:49:21,17338,17347,19285.0,50,19290.0,34,19285.0,19285.0,19285.0,19285.0,13,-13,19285,14,19290,56
2016-12-19 09:50:00,09:50:12,09:50:47,17375,17386,19285.0,15,19290.0,50,19290.0,19290.0,19285.0,19285.0,3,-1,19285,12,19290,53
2016-12-19 09:51:00,09:51:02,09:51:56,17394,17570,19285.0,31,19290.0,53,19290.0,19295.0,19290.0,19295.0,170,64,19290,51,19295,23
2016-12-19 09:52:00,09:52:06,09:52:44,17575,17691,19290.0,51,19295.0,23,19295.0,19305.0,19295.0,19300.0,105,30,19300,4,19305,52
2016-12-19 09:53:00,09:53:02,09:53:36,17708,17830,19300.0,39,19305.0,51,19305.0,19305.0,19300.0,19300.0,111,-33,19300,13,19305,60
2016-12-19 09:54:00,09:54:07,09:54:52,17878,18028,19300.0,29,19305.0,58,19305.0,19305.0,19300.0,19305.0,110,27,19300,34,19305,28
2016-12-19 09:55:00,09:55:04,09:55:35,18044,18169,19300.0,38,19305.0,42,19305.0,19310.0,19305.0,19305.0,110,44,19305,1,19310,43
2016-12-19 09:56:00,09:56:29,09:56:59,18244,18360,19305.0,37,19310.0,41,19305.0,19310.0,19305.0,19310.0,95,8,19310,44,19315,28
2016-12-19 09:57:00,09:57:00,09:57:10,18361,18450,19305.0,7,19310.0,58,19310.0,19315.0,19310.0,19315.0,105,105,19310,58,19315,16
2016-12-19 09:58:00,09:58:07,09:58:57,18482,18610,19310.0,61,19315.0,50,19315.0,19315.0,19300.0,19310.0,141,49,19305,36,19310,42
2016-12-19 09:59:00,09:59:08,09:59:48,18614,18662,19305.0,37,19310.0,42,19305.0,19305.0,19305.0,19305.0,29,-17,19305,4,19310,60
2016-12-19 10:00:00,10:00:18,10:00:52,18704,18798,19305.0,27,19310.0,38,19305.0,19305.0,19300.0,19305.0,77,-61,19300,48,19305,28
2016-12-19 10:01:00,10:01:10,10:01:10,18817,18827,19300.0,50,19305.0,34,19305.0,19305.0,19305.0,19305.0,13,13,19300,52,19305,11
2016-12-19 10:02:00,10:02:03,10:02:57,18846,18940,19300.0,51,19305.0,34,19305.0,19310.0,19305.0,19305.0,63,15,19305,6,19310,49
2016-12-19 10:03:00,10:03:00,10:03:10,18947,18966,19305.0,8,19310.0,49,19305.0,19305.0,19300.0,19305.0,11,-9,19300,49,19305,5
2016-12-19 10:04:00,10:04:01,10:04:54,18984,19085,19300.0,46,19305.0,35,19305.0,19315.0,19300.0,19310.0,80,62,19310,63,19315,38
2016-12-19 10:05:00,10:05:20,10:05:54,19114,19200,19310.0,89,19315.0,32,19310.0,19315.0,19310.0,19315.0,77,17,19310,122,19315,31
2016-12-19 10:06:00,10:06:11,10:06:44,19207,19252,19310.0,125,19315.0,32,19315.0,19315.0,19310.0,19315.0,30,-4,19310,103,19315,25
2016-12-19 10:07:00,10:07:06,10:07:49,19272,19508,19310.0,123,19315.0,29,19315.0,19335.0,19315.0,19320.0,313,217,19320,30,19325,59
2016-12-19 10:08:00,10:08:00,10:08:30,19515,19565,19320.0,37,19325.0,57,19320.0,19325.0,19320.0,19320.0,48,-46,19320,19,19325,41
2016-12-19 10:09:00,10:09:20,10:09:42,19602,19612,19320.0,49,19325.0,57,19320.0,19325.0,19320.0,19325.0,4,2,19320,46,19325,60
2016-12-19 10:10:00,10:10:02,10:10:42,19620,19691,19320.0,51,19325.0,60,19325.0,19325.0,19320.0,19325.0,68,56,19320,76,19325,9
2016-12-19 10:11:00,10:11:00,10:11:51,19712,19748,19320.0,51,19325.0,64,19325.0,19325.0,19320.0,19325.0,10,8,19320,50,19325,58
2016-12-19 10:12:00,10:12:00,10:12:54,19754,19894,19320.0,49,19325.0,58,19320.0,19325.0,19315.0,19315.0,131,-74,19310,123,19315,11
2016-12-19 10:13:00,10:13:02,10:13:34,19904,20050,19310.0,123,19315.0,9,19315.0,19315.0,19310.0,19310.0,224,-147,19310,2,19315,63
2016-12-19 10:14:00,10:14:06,10:14:57,20085,20192,19310.0,54,19315.0,36,19315.0,19315.0,19310.0,19315.0,93,33,19315,13,19315,12
2016-12-19 10:15:00,10:15:04,10:15:54,20199,20273,19315.0,24,19320.0,77,19315.0,19315.0,19310.0,19310.0,35,-11,19310,54,19315,43
2016-12-19 10:16:00,10:16:05,10:16:58,20281,20358,19310.0,29,19315.0,46,19310.0,19315.0,19310.0,19315.0,72,4,19315,3,19320,97
2016-12-19 10:17:00,10:17:03,10:17:53,20362,20404,19315.0,33,19320.0,95,19315.0,19315.0,19315.0,19315.0,9,-9,19315,26,19320,97
2016-12-19 10:18:00,10:18:03,10:18:54,20411,20493,19315.0,24,19320.0,98,19315.0,19320.0,19310.0,19310.0,52,-48,19310,6,19315,64
2016-12-19 10:19:00,10:19:26,10:19:57,20528,20577,19310.0,26,19315.0,64,19310.0,19315.0,19310.0,19310.0,25,3,19310,35,19315,40
2016-12-19 10:20:00,10:20:15,10:20:48,20591,20642,19310.0,34,19315.0,50,19310.0,19310.0,19305.0,19305.0,23,-23,19305,38,19310,38
2016-12-19 10:21:00,10:21:09,10:21:59,20652,20721,19305.0,41,19310.0,38,19310.0,19310.0,19305.0,19310.0,46,40,19305,42,19310,42
2016-12-19 10:22:00,10:22:01,10:22:07,20724,20731,19305.0,42,19310.0,42,19305.0,19310.0,19305.0,19310.0,4,0,19305,40,19310,42
2016-12-19 10:23:00,10:23:05,10:23:59,20790,20916,19305.0,41,19310.0,40,19305.0,19315.0,19305.0,19315.0,100,62,19310,61,19315,13
2016-12-19 10:24:00,10:24:42,10:24:43,20946,20950,19310.0,66,19315.0,31,19310.0,19315.0,19310.0,19315.0,4,2,19310,67,19315,23
2016-12-19 10:25:00,10:25:07,10:25:55,20961,21053,19310.0,67,19315.0,32,19315.0,19315.0,19310.0,19315.0,84,-32,19310,52,19315,8
2016-12-19 10:26:00,10:26:05,10:26:42,21068,21131,19310.0,51,19315.0,22,19315.0,19320.0,19315.0,19320.0,15,13,19315,73,19320,41
2016-12-19 10:27:00,10:27:00,10:27:58,21144,21224,19315.0,76,19320.0,44,19315.0,19320.0,19315.0,19315.0,29,-15,19315,73,19320,34
2016-12-19 10:28:00,10:28:05,10:28:38,21234,21278,19315.0,70,19320.0,64,19315.0,19320.0,19315.0,19320.0,75,11,19315,67,19320,29
2016-12-19 10:29:00,10:29:01,10:29:39,21293,21394,19315.0,44,19320.0,35,19320.0,19320.0,19315.0,19315.0,83,-27,19315,53,19320,45
2016-12-19 10:30:00,10:30:00,10:30:56,21417,21547,19315.0,45,19320.0,54,19315.0,19320.0,19310.0,19320.0,129,13,19320,5,19325,41
2016-12-19 10:31:00,10:31:02,10:31:21,21556,21608,19320.0,19,19325.0,56,19320.0,19320.0,19320.0,19320.0,45,-21,19320,4,19325,57
2016-12-19 10:32:00,10:32:02,10:32:50,21634,21712,19320.0,12,19325.0,83,19325.0,19325.0,19320.0,19320.0,67,5,19320,5,19325,60
2016-12-19 10:33:00,10:33:36,10:33:59,21737,21783,19320.0,31,19325.0,56,19325.0,19325.0,19325.0,19325.0,35,1,19325,8,19330,70
2016-12-19 10:34:00,10:34:00,10:34:18,21787,21802,19325.0,9,19330.0,70,19330.0,19330.0,19330.0,19330.0,2,2,19325,37,19330,65
2016-12-19 10:35:00,10:35:02,10:35:45,21823,21875,19325.0,70,19330.0,60,19330.0,19335.0,19325.0,19335.0,54,52,19330,29,19335,77
2016-12-19 10:36:00,10:36:09,10:36:48,21888,21923,19330.0,41,19335.0,73,19335.0,19335.0,19330.0,19335.0,23,-13,19330,23,19335,68
2016-12-19 10:37:00,10:37:20,10:37:59,21933,22018,19330.0,28,19335.0,62,19330.0,19330.0,19330.0,19330.0,65,-49,19330,4,19335,62
2016-12-19 10:38:00,10:38:04,10:38:58,22023,22068,19330.0,10,19335.0,63,19330.0,19330.0,19330.0,19330.0,29,-29,19330,3,19335,69
2016-12-19 10:39:00,10:39:08,10:39:20,22078,22099,19330.0,3,19335.0,70,19330.0,19330.0,19330.0,19330.0,14,-14,19330,23,19335,62
2016-12-19 10:40:00,10:40:20,10:40:55,22118,22254,19330.0,41,19335.0,61,19330.0,19340.0,19330.0,19335.0,197,137,19330,55,19335,17
2016-12-19 10:41:00,10:41:16,10:41:28,22265,22342,19330.0,65,19335.0,23,19330.0,19330.0,19325.0,19325.0,82,-56,19325,42,19330,46
2016-12-19 10:42:00,10:42:04,10:42:11,22358,22408,19325.0,36,19330.0,50,19330.0,19330.0,19330.0,19330.0,51,47,19325,66,19330,10
2016-12-19 10:43:00,10:43:41,10:43:52,22446,22455,19325.0,41,19330.0,49,19330.0,19330.0,19330.0,19330.0,8,6,19330,34,19335,61
2016-12-19 10:44:00,10:44:01,10:44:20,22459,22471,19330.0,27,19335.0,63,19335.0,19335.0,19330.0,19330.0,8,-4,19330,23,19335,56
2016-12-19 10:45:00,10:45:05,10:45:59,22486,22589,19330.0,43,19335.0,58,19335.0,19340.0,19330.0,19340.0,119,31,19335,13,19340,38
2016-12-19 10:46:00,10:46:00,10:46:43,22590,22693,19335.0,58,19340.0,19,19340.0,19340.0,19330.0,19330.0,124,-104,19330,6,19335,37
2016-12-19 10:47:00,10:47:06,10:47:06,22722,22738,19330.0,26,19335.0,57,19330.0,19330.0,19330.0,19330.0,29,-29,19330,1,19335,56
2016-12-19 10:48:00,10:48:06,10:48:56,22761,22781,19330.0,36,19335.0,60,19330.0,19330.0,19330.0,19330.0,20,-20,19330,14,19335,55
2016-12-19 10:49:00,10:49:02,10:49:51,22784,22852,19330.0,17,19335.0,60,19335.0,19335.0,19330.0,19330.0,55,-21,19330,8,19335,58
2016-12-19 10:50:00,10:50:59,10:50:59,22880,22893,19325.0,50,19330.0,51,19330.0,19335.0,19330.0,19335.0,17,17,19330,27,19335,31
2016-12-19 10:51:00,10:51:02,10:51:55,22897,22957,19330.0,26,19335.0,31,19335.0,19340.0,19335.0,19340.0,20,20,19335,16,19340,56
2016-12-19 10:52:00,10:52:13,10:52:49,22974,23016,19335.0,39,19340.0,52,19335.0,19335.0,19335.0,19335.0,36,-36,19330,62,19340,54
2016-12-19 10:53:00,10:53:36,10:53:36,23046,23078,19330.0,62,19335.0,29,19330.0,19330.0,19330.0,19330.0,45,-45,19325,34,19330,28
2016-12-19 10:54:00,10:54:00,10:54:00,0,0,0.0,0,0.0,0,19330.0,19330.0,19330.0,19330.0,0,0,0,0,0,0
2016-12-19 10:55:00,10:55:07,10:55:08,23113,23143,19325.0,34,19330.0,55,19330.0,19330.0,19325.0,19325.0,40,-34,19320,48,19330,59
2016-12-19 10:56:00,10:56:33,10:56:38,23206,23232,19325.0,37,19330.0,53,19330.0,19330.0,19330.0,19330.0,31,31,19325,37,19330,32
2016-12-19 10:57:00,10:57:13,10:57:43,23248,23313,19325.0,39,19330.0,32,19325.0,19325.0,19325.0,19325.0,58,-44,19320,66,19325,4
2016-12-19 10:58:00,10:58:00,10:58:00,0,0,0.0,0,0.0,0,19325.0,19325.0,19325.0,19325.0,0,0,0,0,0,0
2016-12-19 10:59:00,10:59:05,10:59:50,23343,23437,19320.0,67,19325.0,24,19325.0,19325.0,19320.0,19320.0,78,-74,19320,13,19325,59
2016-12-19 11:00:00,11:00:01,11:00:04,23451,23473,19320.0,24,19325.0,60,19320.0,19320.0,19320.0,19320.0,22,-22,19315,61,19320,1
2016-12-19 11:01:00,11:01:08,11:01:35,23508,23548,19315.0,39,19320.0,29,19320.0,19320.0,19315.0,19315.0,26,-8,19315,15,19320,59
2016-12-19 11:02:00,11:02:22,11:02:22,23568,23569,19315.0,23,19320.0,58,19320.0,19320.0,19320.0,19320.0,3,3,19315,21,19320,55
2016-12-19 11:03:00,11:03:08,11:03:08,23603,23604,19315.0,26,19320.0,53,19320.0,19320.0,19320.0,19320.0,2,2,19315,24,19320,52
2016-12-19 11:04:00,11:04:04,11:04:45,23616,23728,19315.0,27,19320.0,54,19320.0,19320.0,19320.0,19320.0,125,125,19315,65,19320,1
2016-12-19 11:05:00,11:05:21,11:05:39,23774,23822,19315.0,62,19320.0,10,19320.0,19325.0,19320.0,19325.0,38,34,19325,7,19330,52
2016-12-19 11:06:00,11:06:11,11:06:29,23847,23887,19325.0,51,19330.0,34,19330.0,19330.0,19330.0,19330.0,30,4,19330,22,19335,58
2016-12-19 11:07:00,11:07:05,11:07:58,23913,23972,19330.0,31,19335.0,60,19335.0,19335.0,19335.0,19335.0,53,53,19330,51,19335,24
2016-12-19 11:08:00,11:08:48,11:08:58,23992,24050,19330.0,53,19335.0,27,19330.0,19330.0,19330.0,19330.0,83,-83,19330,5,19335,59
2016-12-19 11:09:00,11:09:00,11:09:00,0,0,0.0,0,0.0,0,19330.0,19330.0,19330.0,19330.0,0,0,0,0,0,0
2016-12-19 11:10:00,11:10:02,11:10:02,24083,24083,19330.0,49,19335.0,35,19335.0,19335.0,19335.0,19335.0,2,2,19330,47,19335,33
2016-12-19 11:11:00,11:11:06,11:11:06,24115,24118,19330.0,68,19335.0,26,19335.0,19335.0,19335.0,19335.0,4,4,19330,67,19335,14
2016-12-19 11:12:00,11:12:09,11:12:14,24146,24164,19330.0,69,19335.0,16,19335.0,19335.0,19335.0,19335.0,16,10,19335,11,19340,61
2016-12-19 11:13:00,11:13:03,11:13:41,24183,24225,19335.0,42,19340.0,53,19335.0,19340.0,19335.0,19335.0,35,-31,19330,66,19335,9
2016-12-19 11:14:00,11:14:37,11:14:54,24263,24297,19330.0,62,19335.0,17,19335.0,19335.0,19335.0,19335.0,31,1,19335,27,19340,56
2016-12-19 11:15:00,11:15:45,11:15:45,24321,24328,19335.0,27,19340.0,57,19335.0,19335.0,19335.0,19335.0,10,-10,19335,23,19340,58
2016-12-19 11:16:00,11:16:25,11:16:25,24347,24347,19335.0,22,19340.0,57,19335.0,19335.0,19335.0,19335.0,1,-1,19335,24,19340,56
2016-12-19 11:17:00,11:17:05,11:17:57,24354,24376,19335.0,28,19340.0,55,19340.0,19340.0,19335.0,19335.0,3,1,19335,26,19340,57
2016-12-19 11:18:00,11:18:02,11:18:02,24380,24381,19335.0,21,19340.0,57,19340.0,19340.0,19340.0,19340.0,2,2,19335,19,19340,56
2016-12-19 11:19:00,11:19:02,11:19:28,24389,24397,19335.0,11,19340.0,58,19340.0,19340.0,19335.0,19335.0,3,1,19335,15,19340,60
2016-12-19 11:20:00,11:20:04,11:20:22,24408,24420,19335.0,28,19340.0,58,19340.0,19340.0,19340.0,19340.0,3,3,19335,36,19340,54
2016-12-19 11:21:00,11:21:00,11:21:43,24436,24453,19335.0,33,19340.0,59,19335.0,19340.0,19335.0,19335.0,5,1,19335,29,19340,61
2016-12-19 11:22:00,11:22:04,11:22:57,24457,24531,19335.0,28,19340.0,61,19340.0,19340.0,19335.0,19335.0,60,-34,19330,68,19335,1
2016-12-19 11:23:00,11:23:00,11:23:00,0,0,0.0,0,0.0,0,19335.0,19335.0,19335.0,19335.0,0,0,0,0,0,0
2016-12-19 11:24:00,11:24:00,11:24:37,24557,24604,19330.0,65,19335.0,21,19335.0,19335.0,19330.0,19335.0,22,-6,19330,63,19335,13
2016-12-19 11:25:00,11:25:08,11:25:43,24626,24646,19330.0,68,19335.0,23,19335.0,19335.0,19330.0,19335.0,4,0,19330,61,19335,26
2016-12-19 11:26:00,11:26:09,11:26:55,24658,24768,19330.0,37,19335.0,33,19335.0,19335.0,19325.0,19330.0,114,-66,19330,10,19335,38
2016-12-19 11:27:00,11:27:07,11:27:48,24778,24826,19330.0,16,19335.0,63,19330.0,19330.0,19330.0,19330.0,47,-41,19330,5,19335,64
2016-12-19 11:28:00,11:28:01,11:28:38,24835,24880,19330.0,9,19335.0,63,19330.0,19330.0,19325.0,19325.0,20,-4,19325,63,19330,22
2016-12-19 11:29:00,11:29:07,11:29:56,24889,24911,19325.0,30,19330.0,32,19330.0,19330.0,19330.0,19330.0,7,7,19325,70,19330,12
2016-12-19 11:30:00,11:30:01,11:30:39,24919,25007,19325.0,45,19330.0,32,19330.0,19330.0,19320.0,19320.0,70,-26,19320,55,19325,38
2016-12-19 11:31:00,11:31:00,11:31:59,25025,25167,19320.0,59,19325.0,37,19325.0,19330.0,19325.0,19330.0,105,35,19325,15,19330,53
2016-12-19 11:32:00,11:32:01,11:32:37,25174,25222,19325.0,8,19330.0,56,19325.0,19325.0,19325.0,19325.0,21,-15,19325,33,19330,53
2016-12-19 11:33:00,11:33:10,11:33:47,25246,25330,19325.0,46,19330.0,46,19330.0,19330.0,19325.0,19330.0,81,79,19325,73,19335,64
2016-12-19 11:34:00,11:34:20,11:34:45,25351,25398,19330.0,35,19335.0,61,19330.0,19330.0,19325.0,19325.0,43,-1,19325,40,19330,29
2016-12-19 11:35:00,11:35:15,11:35:55,25412,25433,19325.0,44,19330.0,32,19325.0,19325.0,19325.0,19325.0,4,-4,19325,40,19330,52
2016-12-19 11:36:00,11:36:03,11:36:16,25438,25508,19325.0,43,19330.0,52,19330.0,19330.0,19330.0,19330.0,72,56,19330,17,19335,63
2016-12-19 11:37:00,11:37:00,11:37:48,25531,25609,19330.0,37,19335.0,57,19335.0,19335.0,19330.0,19330.0,51,39,19330,61,19335,26
2016-12-19 11:38:00,11:38:33,11:38:56,25631,25694,19330.0,40,19335.0,41,19330.0,19330.0,19325.0,19325.0,62,-62,19325,12,19330,66
2016-12-19 11:39:00,11:39:12,11:39:52,25707,25789,19325.0,32,19330.0,63,19325.0,19325.0,19320.0,19320.0,86,14,19320,70,19325,34
2016-12-19 11:40:00,11:40:08,11:40:53,25797,25939,19320.0,72,19325.0,31,19325.0,19330.0,19325.0,19330.0,178,44,19330,17,19335,62
2016-12-19 11:41:00,11:41:43,11:41:48,25969,26015,19330.0,34,19335.0,65,19335.0,19335.0,19335.0,19335.0,46,34,19330,69,19340,58
2016-12-19 11:42:00,11:42:00,11:42:31,26031,26114,19330.0,63,19335.0,18,19335.0,19335.0,19335.0,19335.0,66,-26,19330,73,19335,2
2016-12-19 11:43:00,11:43:48,11:43:55,26157,26162,19330.0,54,19335.0,27,19330.0,19330.0,19330.0,19330.0,3,-3,19330,49,19335,31
2016-12-19 11:44:00,11:44:04,11:44:59,26168,26274,19330.0,52,19335.0,35,19330.0,19330.0,19320.0,19325.0,86,-74,19320,81,19325,6
2016-12-19 11:45:00,11:45:03,11:45:26,26283,26363,19320.0,75,19325.0,19,19325.0,19325.0,19320.0,19325.0,57,40,19325,24,19330,57
2016-12-19 11:46:00,11:46:12,11:46:58,26383,26422,19325.0,33,19330.0,60,19325.0,19330.0,19325.0,19325.0,11,-1,19325,20,19330,86
2016-12-19 11:47:00,11:47:03,11:47:58,26428,26539,19325.0,16,19330.0,86,19325.0,19330.0,19320.0,19325.0,74,-11,19325,3,19330,80
2016-12-19 11:48:00,11:48:00,11:48:29,26546,26602,19325.0,3,19330.0,83,19325.0,19325.0,19320.0,19320.0,45,37,19320,48,19325,43
2016-12-19 11:49:00,11:49:04,11:49:44,26622,26636,19320.0,53,19325.0,37,19320.0,19320.0,19320.0,19320.0,4,-4,19320,55,19325,33
2016-12-19 11:50:00,11:50:00,11:50:40,26651,26803,19320.0,50,19325.0,49,19320.0,19325.0,19315.0,19320.0,143,-37,19315,59,19320,5
2016-12-19 11:51:00,11:51:03,11:51:58,26828,27019,19315.0,62,19320.0,29,19315.0,19320.0,19315.0,19320.0,236,150,19320,5,19325,37
2016-12-19 11:52:00,11:52:01,11:52:45,27027,27077,19320.0,9,19325.0,60,19320.0,19325.0,19320.0,19325.0,33,-13,19325,2,19330,60
2016-12-19 11:53:00,11:53:04,11:53:40,27100,27146,19325.0,9,19330.0,64,19325.0,19330.0,19320.0,19320.0,35,-33,19320,74,19325,10
2016-12-19 11:54:00,11:54:20,11:54:37,27174,27202,19320.0,69,19325.0,35,19320.0,19325.0,19320.0,19320.0,20,6,19320,68,19325,24
2016-12-19 11:55:00,11:55:11,11:55:46,27218,27358,19320.0,68,19325.0,26,19325.0,19330.0,19325.0,19330.0,125,7,19330,7,19335,119
2016-12-19 11:56:00,11:56:05,11:56:58,27378,27481,19330.0,69,19335.0,118,19330.0,19330.0,19325.0,19330.0,159,-120,19330,33,19335,115
2016-12-19 11:57:00,11:57:04,11:57:39,27485,27503,19330.0,35,19335.0,116,19330.0,19330.0,19330.0,19330.0,4,-4,19330,32,19335,116
2016-12-19 11:58:00,11:58:03,11:58:58,27515,27598,19330.0,33,19335.0,117,19335.0,19335.0,19330.0,19335.0,97,71,19330,72,19335,29
2016-12-19 11:59:00,11:59:00,11:59:54,27602,27709,19330.0,72,19335.0,30,19335.0,19335.0,19330.0,19335.0,83,53,19330,78,19335,16
2016-12-19 12:00:00,12:00:03,12:00:55,27724,27794,19330.0,78,19335.0,26,19335.0,19335.0,19330.0,19330.0,32,22,19330,71,19335,36
2016-12-19 12:01:00,12:01:03,12:01:34,27797,27826,19330.0,71,19335.0,36,19335.0,19335.0,19330.0,19330.0,12,4,19330,45,19335,39
2016-12-19 12:02:00,12:02:01,12:02:59,27842,27975,19330.0,31,19335.0,49,19330.0,19330.0,19320.0,19320.0,143,-17,19320,52,19325,35
2016-12-19 12:03:00,12:03:20,12:03:46,27995,28014,19320.0,55,19325.0,38,19325.0,19325.0,19320.0,19320.0,12,-8,19320,50,19325,31
2016-12-19 12:04:00,12:04:03,12:04:51,28026,28047,19320.0,51,19325.0,38,19325.0,19325.0,19320.0,19320.0,12,-8,19320,56,19325,42
2016-12-19 12:05:00,12:05:02,12:05:46,28052,28089,19320.0,56,19325.0,44,19325.0,19325.0,19320.0,19320.0,19,-15,19320,16,19325,75
2016-12-19 12:06:00,12:06:10,12:06:49,28101,28178,19320.0,28,19325.0,50,19320.0,19325.0,19320.0,19325.0,80,72,19325,43,19330,62
2016-12-19 12:07:00,12:07:01,12:07:14,28184,28301,19325.0,30,19330.0,62,19325.0,19330.0,19320.0,19330.0,188,120,19325,41,19330,19
2016-12-19 12:08:00,12:08:01,12:08:48,28325,28353,19325.0,53,19330.0,52,19330.0,19330.0,19325.0,19325.0,7,-3,19325,52,19330,52
2016-12-19 12:09:00,12:09:00,12:09:57,28361,28601,19325.0,50,19330.0,53,19325.0,19330.0,19315.0,19320.0,266,-162,19315,60,19320,3
2016-12-19 12:10:00,12:10:00,12:10:47,28607,28665,19315.0,60,19320.0,20,19315.0,19320.0,19315.0,19315.0,35,5,19315,45,19320,27
2016-12-19 12:11:00,12:11:04,12:11:36,28677,28882,19315.0,49,19320.0,27,19315.0,19315.0,19305.0,19305.0,264,-262,19305,40,19310,43
2016-12-19 12:12:00,12:12:05,12:12:59,28902,29202,19305.0,52,19310.0,46,19305.0,19310.0,19300.0,19305.0,357,-33,19305,14,19310,43
2016-12-19 12:13:00,12:13:00,12:13:35,29205,29332,19305.0,14,19310.0,43,19305.0,19310.0,19300.0,19305.0,134,22,19305,4,19310,77
2016-12-19 12:14:00,12:14:03,12:14:44,29356,29369,19305.0,16,19310.0,77,19305.0,19305.0,19305.0,19305.0,10,-10,19305,17,19310,79
2016-12-19 12:15:00,12:15:00,12:15:59,29377,29466,19305.0,11,19310.0,79,19305.0,19305.0,19300.0,19300.0,34,-12,19300,38,19305,62
2016-12-19 12:16:00,12:16:00,12:16:59,29471,29817,19300.0,26,19305.0,69,19300.0,19315.0,19295.0,19310.0,455,-148,19310,23,19315,38
2016-12-19 12:17:00,12:17:00,12:17:54,29822,29909,19310.0,25,19315.0,44,19310.0,19310.0,19305.0,19305.0,57,-57,19305,30,19310,54
2016-12-19 12:18:00,12:18:01,12:18:41,29920,29961,19305.0,37,19310.0,55,19305.0,19305.0,19305.0,19305.0,4,-4,19305,40,19310,57
2016-12-19 12:19:00,12:19:02,12:19:49,29974,30127,19305.0,52,19310.0,74,19305.0,19320.0,19305.0,19320.0,200,180,19315,52,19320,47
2016-12-19 12:20:00,12:20:02,12:20:57,30137,30230,19315.0,52,19320.0,52,19315.0,19315.0,19310.0,19315.0,80,-20,19315,29,19320,50
2016-12-19 12:21:00,12:21:16,12:21:59,30242,30474,19315.0,47,19320.0,47,19315.0,19330.0,19315.0,19325.0,272,72,19320,73,19330,61
2016-12-19 12:22:00,12:22:00,12:22:56,30479,30716,19325.0,3,19330.0,60,19325.0,19335.0,19320.0,19325.0,259,-19,19320,75,19330,64
2016-12-19 12:23:00,12:23:06,12:23:56,30729,30814,19320.0,76,19325.0,21,19325.0,19325.0,19320.0,19325.0,50,24,19325,25,19330,64
2016-12-19 12:24:00,12:24:04,12:24:38,30822,30953,19325.0,35,19330.0,52,19330.0,19335.0,19330.0,19335.0,208,28,19330,65,19335,16
2016-12-19 12:25:00,12:25:09,12:25:55,30970,31004,19330.0,68,19335.0,25,19330.0,19335.0,19330.0,19330.0,13,-3,19330,77,19335,21
2016-12-19 12:26:00,12:26:03,12:26:52,31008,31129,19330.0,77,19335.0,22,19330.0,19340.0,19330.0,19340.0,131,109,19340,43,19345,75
2016-12-19 12:27:00,12:27:03,12:27:55,31144,31259,19340.0,58,19345.0,76,19340.0,19345.0,19340.0,19345.0,124,80,19340,84,19345,19
2016-12-19 12:28:00,12:28:00,12:28:50,31267,31410,19340.0,84,19345.0,26,19345.0,19345.0,19330.0,19330.0,164,-142,19330,62,19335,41
2016-12-19 12:29:00,12:29:00,12:29:57,31413,31525,19330.0,62,19335.0,41,19330.0,19340.0,19330.0,19335.0,156,82,19330,67,19335,15
2016-12-19 12:30:00,12:30:00,12:30:59,31530,31711,19330.0,67,19335.0,17,19335.0,19340.0,19335.0,19340.0,168,-44,19340,14,19345,69
2016-12-19 12:31:00,12:31:00,12:31:50,31714,31811,19340.0,14,19345.0,69,19340.0,19340.0,19340.0,19340.0,83,-55,19340,13,19345,68
2016-12-19 12:32:00,12:32:11,12:32:55,31823,31873,19340.0,15,19345.0,68,19340.0,19340.0,19340.0,19340.0,34,-6,19340,2,19345,70
2016-12-19 12:33:00,12:33:09,12:33:48,31882,31940,19340.0,11,19345.0,69,19340.0,19340.0,19340.0,19340.0,51,-23,19340,17,19345,69
2016-12-19 12:34:00,12:34:09,12:34:31,31958,32016,19340.0,21,19345.0,68,19340.0,19340.0,19340.0,19340.0,72,-72,19340,23,19345,68
2016-12-19 12:35:00,12:35:07,12:35:50,32032,32103,19340.0,38,19345.0,68,19340.0,19340.0,19340.0,19340.0,63,17,19340,16,19340,34
2016-12-19 12:36:00,12:36:01,12:36:54,32105,32237,19340.0,16,19345.0,82,19340.0,19340.0,19335.0,19340.0,138,86,19340,2,19345,74
2016-12-19 12:37:00,12:37:00,12:37:59,32244,32296,19340.0,10,19345.0,73,19340.0,19340.0,19335.0,19340.0,34,-2,19340,23,19345,55
2016-12-19 12:38:00,12:38:08,12:38:53,32306,32332,19340.0,27,19345.0,76,19345.0,19345.0,19340.0,19340.0,3,1,19340,33,19345,78
2016-12-19 12:39:00,12:39:00,12:39:43,32339,32397,19340.0,16,19345.0,78,19340.0,19345.0,19340.0,19340.0,51,-49,19340,30,19345,81
2016-12-19 12:40:00,12:40:15,12:40:58,32416,32469,19340.0,27,19345.0,82,19345.0,19345.0,19340.0,19340.0,35,-13,19340,32,19345,79
2016-12-19 12:41:00,12:41:00,12:41:56,32471,32721,19340.0,32,19345.0,78,19340.0,19360.0,19340.0,19350.0,235,83,19350,89,19355,16
2016-12-19 12:42:00,12:42:00,12:42:57,32729,32876,19355.0,8,19360.0,77,19355.0,19360.0,19355.0,19355.0,120,-20,19355,13,19360,59
2016-12-19 12:43:00,12:43:01,12:43:47,32882,32995,19355.0,16,19360.0,59,19355.0,19355.0,19350.0,19355.0,104,-48,19355,15,19360,68
2016-12-19 12:44:00,12:44:20,12:44:59,33006,33028,19355.0,23,19360.0,67,19355.0,19355.0,19355.0,19355.0,9,-9,19355,19,19360,65
2016-12-19 12:45:00,12:45:00,12:45:45,33030,33059,19355.0,19,19360.0,64,19355.0,19360.0,19355.0,19360.0,10,2,19355,26,19360,59
2016-12-19 12:46:00,12:46:04,12:46:58,33067,33115,19355.0,27,19360.0,69,19360.0,19360.0,19355.0,19355.0,38,-34,19355,44,19360,58
2016-12-19 12:47:00,12:47:26,12:47:55,33124,33277,19355.0,39,19360.0,57,19355.0,19355.0,19350.0,19355.0,148,-50,19350,108,19355,2
2016-12-19 12:48:00,12:48:01,12:48:56,33285,33317,19350.0,103,19355.0,26,19355.0,19355.0,19350.0,19350.0,7,-1,19350,106,19355,48
2016-12-19 12:49:00,12:49:01,12:49:35,33322,33380,19350.0,102,19355.0,50,19355.0,19360.0,19355.0,19355.0,38,36,19355,66,19360,56
2016-12-19 12:50:00,12:50:00,12:50:54,33389,33492,19355.0,68,19360.0,52,19355.0,19360.0,19355.0,19355.0,104,-52,19355,3,19360,77
2016-12-19 12:51:00,12:51:06,12:51:55,33502,33539,19355.0,20,19360.0,78,19355.0,19355.0,19350.0,19350.0,32,-30,19350,98,19355,26
2016-12-19 12:52:00,12:52:00,12:52:38,33544,33687,19350.0,99,19355.0,31,19350.0,19355.0,19350.0,19350.0,183,-43,19350,67,19355,32
2016-12-19 12:53:00,12:53:00,12:53:57,33703,33810,19350.0,68,19355.0,42,19350.0,19350.0,19350.0,19350.0,88,-88,19345,44,19350,36
2016-12-19 12:54:00,12:54:00,12:54:51,33818,33887,19345.0,48,19350.0,22,19350.0,19350.0,19350.0,19350.0,33,22,19350,33,19355,69
2016-12-19 12:55:00,12:55:03,12:55:48,33900,33948,19350.0,34,19355.0,69,19350.0,19355.0,19350.0,19350.0,29,-13,19345,70,19350,9
2016-12-19 12:56:00,12:56:01,12:56:55,33965,34061,19345.0,80,19350.0,23,19350.0,19350.0,19345.0,19350.0,81,-21,19345,71,19355,74
2016-12-19 12:57:00,12:57:04,12:57:51,34079,34232,19345.0,76,19350.0,9,19350.0,19355.0,19350.0,19350.0,110,8,19345,69,19350,7
2016-12-19 12:58:00,12:58:09,12:58:48,34255,34319,19345.0,81,19350.0,31,19345.0,19345.0,19340.0,19340.0,72,-14,19340,91,19345,11
2016-12-19 12:59:00,12:59:10,12:59:28,34336,34344,19340.0,96,19345.0,23,19340.0,19340.0,19340.0,19340.0,3,-3,19340,95,19345,25
2016-12-19 13:00:00,13:00:04,13:00:59,34359,34523,19340.0,96,19345.0,32,19345.0,19345.0,19340.0,19340.0,170,-154,19335,75,19340,6
2016-12-19 13:01:00,13:01:00,13:01:48,34526,34640,19335.0,75,19340.0,6,19335.0,19345.0,19335.0,19340.0,85,33,19340,60,19345,43
2016-12-19 13:02:00,13:02:05,13:02:48,34647,34761,19340.0,60,19345.0,51,19340.0,19340.0,19335.0,19335.0,115,-101,19330,82,19335,23
2016-12-19 13:03:00,13:03:00,13:03:59,34782,34928,19330.0,85,19335.0,33,19330.0,19335.0,19330.0,19335.0,169,-75,19335,2,19340,81
2016-12-19 13:04:00,13:04:02,13:04:58,34935,35026,19335.0,25,19340.0,69,19335.0,19335.0,19330.0,19335.0,46,12,19330,83,19340,78
2016-12-19 13:05:00,13:05:02,13:05:56,35037,35214,19335.0,2,19340.0,78,19335.0,19340.0,19335.0,19340.0,164,142,19340,9,19345,71
2016-12-19 13:06:00,13:06:22,13:06:42,35251,35302,19340.0,48,19345.0,65,19340.0,19340.0,19335.0,19335.0,60,-58,19335,53,19340,70
2016-12-19 13:07:00,13:07:21,13:07:54,35329,35349,19335.0,62,19340.0,72,19335.0,19335.0,19335.0,19335.0,3,-3,19335,53,19340,71
2016-12-19 13:08:00,13:08:01,13:08:40,35356,35386,19335.0,53,19340.0,77,19335.0,19340.0,19335.0,19335.0,10,2,19335,45,19340,77
2016-12-19 13:09:00,13:09:04,13:09:51,35394,35516,19335.0,50,19340.0,78,19340.0,19345.0,19335.0,19340.0,117,55,19340,5,19345,84
2016-12-19 13:10:00,13:10:00,13:10:57,35525,35628,19340.0,23,19345.0,86,19340.0,19340.0,19340.0,19340.0,58,-50,19340,34,19345,79
2016-12-19 13:11:00,13:11:18,13:11:58,35644,35673,19340.0,26,19345.0,81,19340.0,19340.0,19340.0,19340.0,17,-17,19340,45,19345,130
2016-12-19 13:12:00,13:12:05,13:12:46,35677,35724,19340.0,38,19345.0,130,19345.0,19345.0,19340.0,19340.0,17,-11,19340,36,19345,130
2016-12-19 13:13:00,13:13:16,13:13:52,35737,35798,19340.0,45,19345.0,130,19340.0,19345.0,19340.0,19345.0,83,29,19345,2,19350,109
2016-12-19 13:14:00,13:14:00,13:14:50,35814,35933,19345.0,12,19350.0,118,19345.0,19345.0,19340.0,19345.0,101,-7,19340,75,19345,9
2016-12-19 13:15:00,13:15:25,13:15:44,35958,35986,19340.0,74,19345.0,24,19345.0,19345.0,19340.0,19345.0,25,23,19340,72,19345,18
2016-12-19 13:16:00,13:16:01,13:16:34,35995,36021,19340.0,74,19345.0,21,19345.0,19345.0,19340.0,19340.0,4,0,19340,71,19345,38
2016-12-19 13:17:00,13:17:03,13:17:53,36038,36081,19340.0,73,19345.0,31,19345.0,19345.0,19340.0,19340.0,15,5,19340,68,19345,37
2016-12-19 13:18:00,13:18:09,13:18:35,36095,36102,19340.0,64,19345.0,40,19345.0,19345.0,19340.0,19340.0,4,-2,19340,65,19345,42
2016-12-19 13:19:00,13:19:07,13:19:45,36114,36220,19340.0,98,19345.0,40,19345.0,19350.0,19340.0,19350.0,130,-56,19345,44,19350,119
2016-12-19 13:20:00,13:20:07,13:20:59,36235,36262,19345.0,58,19350.0,110,19345.0,19350.0,19345.0,19350.0,8,2,19345,66,19350,105
2016-12-19 13:21:00,13:21:09,13:21:50,36272,36311,19345.0,64,19350.0,107,19350.0,19350.0,19345.0,19345.0,9,-5,19345,54,19350,114
2016-12-19 13:22:00,13:22:08,13:22:29,36322,36335,19345.0,44,19350.0,115,19350.0,19350.0,19345.0,19345.0,21,-17,19345,27,19350,110
2016-12-19 13:23:00,13:23:00,13:23:59,36357,36437,19345.0,29,19350.0,111,19345.0,19345.0,19340.0,19340.0,89,-89,19340,2,19345,75
2016-12-19 13:24:00,13:24:00,13:24:42,36438,36495,19340.0,85,19345.0,51,19340.0,19345.0,19340.0,19340.0,38,-36,19340,33,19345,71
2016-12-19 13:25:00,13:25:07,13:25:46,36510,36528,19340.0,45,19345.0,71,19340.0,19340.0,19340.0,19340.0,6,-6,19340,38,19345,71
2016-12-19 13:26:00,13:26:04,13:26:37,36539,36588,19340.0,53,19345.0,64,19345.0,19345.0,19340.0,19345.0,38,32,19345,40,19350,88
2016-12-19 13:27:00,13:27:06,13:27:45,36606,36626,19345.0,32,19350.0,108,19345.0,19350.0,19345.0,19345.0,8,-6,19345,55,19350,115
2016-12-19 13:28:00,13:28:05,13:28:40,36640,36677,19345.0,53,19350.0,115,19350.0,19350.0,19345.0,19350.0,65,59,19345,26,19350,74
2016-12-19 13:29:00,13:29:01,13:29:43,36693,36749,19345.0,30,19350.0,84,19350.0,19350.0,19345.0,19345.0,56,50,19345,40,19350,87
2016-12-19 13:30:00,13:30:02,13:30:49,36766,36869,19345.0,33,19350.0,88,19350.0,19350.0,19345.0,19345.0,103,97,19345,56,19350,35
2016-12-19 13:31:00,13:31:17,13:31:42,36896,37012,19345.0,57,19350.0,82,19350.0,19355.0,19350.0,19350.0,123,17,19350,46,19355,80
2016-12-19 13:32:00,13:32:09,13:32:48,37031,37068,19350.0,63,19355.0,75,19355.0,19355.0,19350.0,19350.0,54,-52,19350,44,19355,72
2016-12-19 13:33:00,13:33:01,13:33:52,37081,37124,19350.0,44,19355.0,72,19350.0,19355.0,19350.0,19350.0,7,-3,19350,72,19355,79
2016-12-19 13:34:00,13:34:04,13:34:59,37140,37268,19350.0,66,19355.0,86,19355.0,19355.0,19345.0,19345.0,129,-105,19350,8,19350,35
2016-12-19 13:35:00,13:35:06,13:35:23,37271,37359,19345.0,77,19350.0,31,19350.0,19350.0,19350.0,19350.0,81,37,19350,6,19355,87
2016-12-19 13:36:00,13:36:17,13:36:57,37385,37430,19350.0,41,19355.0,88,19350.0,19350.0,19350.0,19350.0,6,-6,19350,24,19355,95
2016-12-19 13:37:00,13:37:00,13:37:44,37437,37510,19350.0,23,19355.0,96,19350.0,19355.0,19350.0,19355.0,51,-37,19350,38,19355,90
2016-12-19 13:38:00,13:38:02,13:38:58,37521,37631,19350.0,28,19355.0,93,19350.0,19355.0,19350.0,19355.0,83,-33,19350,31,19355,88
2016-12-19 13:39:00,13:39:16,13:39:58,37647,37742,19350.0,26,19355.0,89,19350.0,19350.0,19345.0,19345.0,73,-61,19345,67,19350,59
2016-12-19 13:40:00,13:40:04,13:40:54,37749,37766,19345.0,65,19350.0,72,19345.0,19345.0,19345.0,19345.0,5,-5,19345,45,19350,81
2016-12-19 13:41:00,13:41:07,13:41:47,37770,37813,19345.0,47,19350.0,81,19350.0,19350.0,19345.0,19345.0,41,-37,19340,56,19345,11
2016-12-19 13:42:00,13:42:00,13:42:59,37820,37904,19340.0,60,19345.0,13,19345.0,19345.0,19345.0,19345.0,46,-12,19345,9,19350,79
2016-12-19 13:43:00,13:43:02,13:43:59,37909,37989,19345.0,10,19350.0,80,19345.0,19350.0,19345.0,19350.0,57,49,19345,64,19350,30
2016-12-19 13:44:00,13:44:04,13:44:51,38000,38326,19345.0,70,19350.0,27,19350.0,19350.0,19335.0,19340.0,488,-14,19340,45,19345,38
2016-12-19 13:45:00,13:45:08,13:45:54,38353,38424,19340.0,47,19345.0,48,19340.0,19345.0,19340.0,19345.0,72,56,19345,29,19350,61
2016-12-19 13:46:00,13:46:05,13:46:57,38435,38547,19345.0,30,19350.0,68,19345.0,19345.0,19345.0,19345.0,76,-34,19340,87,19350,79
2016-12-19 13:47:00,13:47:06,13:47:44,38562,38595,19340.0,89,19345.0,9,19345.0,19345.0,19340.0,19345.0,16,4,19340,84,19345,23
2016-12-19 13:48:00,13:48:08,13:48:57,38606,38672,19340.0,86,19345.0,19,19340.0,19350.0,19340.0,19350.0,26,22,19345,54,19350,35
2016-12-19 13:49:00,13:49:03,13:49:54,38682,38816,19345.0,59,19350.0,44,19350.0,19355.0,19345.0,19355.0,119,9,19350,78,19355,11
2016-12-19 13:50:00,13:50:04,13:50:54,38838,38983,19355.0,24,19360.0,58,19355.0,19355.0,19350.0,19355.0,121,41,19350,87,19360,118
2016-12-19 13:51:00,13:51:00,13:51:54,38994,39080,19350.0,87,19355.0,6,19355.0,19355.0,19355.0,19355.0,72,18,19350,98,19355,35
2016-12-19 13:52:00,13:52:05,13:52:45,39097,39291,19350.0,100,19355.0,47,19350.0,19355.0,19345.0,19350.0,279,-115,19350,22,19355,84
2016-12-19 13:53:00,13:53:24,13:53:43,39329,39356,19350.0,94,19355.0,41,19355.0,19355.0,19350.0,19350.0,8,4,19350,96,19355,43
2016-12-19 13:54:00,13:54:00,13:54:56,39361,39435,19350.0,93,19355.0,46,19355.0,19355.0,19350.0,19355.0,41,33,19350,89,19355,47
2016-12-19 13:55:00,13:55:04,13:55:44,39447,39608,19350.0,67,19355.0,82,19350.0,19355.0,19345.0,19350.0,165,-115,19345,54,19350,84
2016-12-19 13:56:00,13:56:01,13:56:56,39621,39869,19345.0,47,19350.0,85,19350.0,19355.0,19350.0,19355.0,354,223,19350,123,19355,5
2016-12-19 13:57:00,13:57:21,13:57:54,39891,39944,19350.0,121,19355.0,36,19355.0,19355.0,19350.0,19355.0,64,60,19350,121,19355,24
2016-12-19 13:58:00,13:58:08,13:58:45,39961,40052,19350.0,110,19355.0,38,19355.0,19355.0,19350.0,19355.0,68,60,19350,123,19355,6
2016-12-19 13:59:00,13:59:14,13:59:59,40103,40401,19350.0,121,19355.0,64,19355.0,19355.0,19350.0,19355.0,424,-160,19350,156,19355,4
2016-12-19 14:00:00,14:00:00,14:00:55,40404,40710,19350.0,156,19355.0,4,19350.0,19360.0,19350.0,19355.0,692,-185,19355,11,19360,135
2016-12-19 14:01:00,14:01:00,14:01:53,40713,40795,19355.0,12,19360.0,131,19360.0,19360.0,19355.0,19355.0,75,-53,19355,67,19360,99
2016-12-19 14:02:00,14:02:00,14:02:52,40797,41066,19355.0,67,19360.0,102,19360.0,19365.0,19355.0,19365.0,411,118,19360,126,19365,126
2016-12-19 14:03:00,14:03:00,14:03:58,41076,41221,19360.0,129,19365.0,129,19365.0,19365.0,19355.0,19355.0,188,-162,19355,18,19360,125
2016-12-19 14:04:00,14:04:00,14:04:58,41223,41277,19355.0,18,19360.0,122,19360.0,19360.0,19355.0,19360.0,22,18,19355,103,19360,105
2016-12-19 14:05:00,14:05:00,14:05:58,41280,41500,19355.0,103,19360.0,105,19355.0,19360.0,19350.0,19355.0,414,-234,19350,93,19355,20
2016-12-19 14:06:00,14:06:20,14:06:54,41523,41579,19350.0,98,19355.0,36,19355.0,19360.0,19355.0,19355.0,78,-2,19350,100,19355,66
2016-12-19 14:07:00,14:07:11,14:07:57,41599,41702,19350.0,94,19355.0,62,19355.0,19355.0,19345.0,19345.0,119,-17,19345,79,19350,61
2016-12-19 14:08:00,14:08:05,14:08:59,41714,41840,19345.0,78,19350.0,88,19350.0,19355.0,19345.0,19355.0,175,71,19355,57,19360,53
2016-12-19 14:09:00,14:09:05,14:09:46,41846,41922,19355.0,73,19360.0,53,19355.0,19360.0,19355.0,19355.0,147,-143,19350,98,19355,1
