,ST,ET,sidx,eidx,bB,bBS,bA,bAS,O,H,L,C,V,OF,eB,eBS,eA,eAS
2017-01-05 08:00:00,08:00:00,08:00:58,3150,3579,19590.0,39,19595.0,40,19595.0,19600.0,19580.0,19585.0,544,-52,19585,78,19590,95
2017-01-05 08:01:00,08:01:00,08:01:59,3582,3812,19585.0,71,19590.0,96,19585.0,19590.0,19570.0,19570.0,221,-141,19570,91,19575,118
2017-01-05 08:02:00,08:02:00,08:02:59,3813,4098,19570.0,86,19575.0,117,19570.0,19585.0,19570.0,19580.0,307,109,19580,52,19585,73
2017-01-05 08:03:00,08:03:00,08:03:59,4101,4452,19580.0,52,19585.0,73,19585.0,19590.0,19570.0,19570.0,443,59,19570,102,19575,95
2017-01-05 08:04:00,08:04:00,08:04:59,4454,4777,19570.0,102,19575.0,47,19575.0,19575.0,19555.0,19555.0,364,-126,19555,14,19560,93
2017-01-05 08:05:00,08:05:00,08:05:58,4778,5155,19555.0,16,19560.0,81,19555.0,19560.0,19550.0,19550.0,421,-72,19550,2,19555,84
2017-01-05 08:06:00,08:06:00,08:06:59,5161,5445,19550.0,31,19555.0,66,19550.0,19560.0,19545.0,19545.0,293,-105,19545,2,19550,73
2017-01-05 08:07:00,08:07:01,08:07:58,5451,5761,19545.0,4,19550.0,75,19545.0,19550.0,19540.0,19545.0,380,36,19540,48,19545,66
2017-01-05 08:08:00,08:08:01,08:08:59,5767,5984,19540.0,45,19545.0,68,19545.0,19555.0,19540.0,19555.0,164,130,19550,26,19555,149
2017-01-05 08:09:00,08:09:00,08:09:59,5988,6382,19550.0,27,19555.0,149,19555.0,19555.0,19535.0,19540.0,415,-32,19540,16,19545,48
2017-01-05 08:10:00,08:10:00,08:10:59,6387,6661,19540.0,17,19545.0,47,19540.0,19550.0,19535.0,19550.0,215,-11,19545,16,19550,80
2017-01-05 08:11:00,08:11:03,08:11:59,6671,6887,19545.0,38,19550.0,94,19545.0,19560.0,19545.0,19555.0,166,134,19555,43,19560,39
2017-01-05 08:12:00,08:12:00,08:12:57,6890,7175,19555.0,43,19560.0,39,19560.0,19575.0,19555.0,19565.0,247,141,19565,68,19570,23
2017-01-05 08:13:00,08:13:00,08:13:53,7183,7448,19565.0,68,19570.0,21,19570.0,19575.0,19560.0,19575.0,313,195,19570,91,19580,70
2017-01-05 08:14:00,08:14:00,08:14:43,7464,7611,19570.0,97,19575.0,29,19575.0,19575.0,19575.0,19575.0,125,73,19570,78,19580,62
2017-01-05 08:15:00,08:15:00,08:15:56,7636,7936,19570.0,83,19575.0,15,19575.0,19575.0,19565.0,19570.0,275,6,19565,43,19570,41
2017-01-05 08:16:00,08:16:02,08:16:43,7949,8087,19565.0,11,19570.0,72,19565.0,19570.0,19565.0,19565.0,62,-35,19560,66,19565,9
2017-01-05 08:17:00,08:17:01,08:17:52,8110,8400,19560.0,57,19565.0,41,19560.0,19565.0,19545.0,19545.0,269,-125,19545,50,19550,32
2017-01-05 08:18:00,08:18:22,08:18:58,8431,8657,19545.0,31,19550.0,93,19545.0,19550.0,19540.0,19540.0,196,-28,19535,97,19540,7
2017-01-05 08:19:00,08:19:00,08:19:58,8661,8868,19535.0,97,19540.0,16,19535.0,19550.0,19535.0,19550.0,195,171,19545,89,19550,24
2017-01-05 08:20:00,08:20:05,08:20:57,8879,9329,19545.0,83,19550.0,31,19550.0,19560.0,19550.0,19550.0,562,-60,19545,86,19550,14
2017-01-05 08:21:00,08:21:00,08:21:56,9340,9712,19545.0,65,19550.0,65,19550.0,19550.0,19540.0,19550.0,419,-181,19550,63,19555,67
2017-01-05 08:22:00,08:22:00,08:22:55,9720,9903,19550.0,60,19555.0,13,19550.0,19560.0,19550.0,19555.0,168,-76,19555,11,19560,66
2017-01-05 08:23:00,08:23:00,08:23:47,9916,10071,19555.0,44,19560.0,53,19560.0,19565.0,19560.0,19565.0,150,106,19560,95,19565,40
2017-01-05 08:24:00,08:24:01,08:24:59,10080,10257,19560.0,93,19565.0,53,19565.0,19570.0,19560.0,19570.0,154,68,19565,37,19570,69
2017-01-05 08:25:00,08:25:03,08:25:45,10269,10450,19565.0,33,19570.0,70,19565.0,19565.0,19555.0,19560.0,157,-35,19555,59,19560,10
2017-01-05 08:26:00,08:26:00,08:26:58,10473,10636,19555.0,77,19560.0,17,19555.0,19560.0,19555.0,19555.0,86,-1,19555,35,19560,101
2017-01-05 08:27:00,08:27:00,08:27:57,10638,10971,19555.0,35,19560.0,100,19555.0,19565.0,19555.0,19560.0,401,27,19555,68,19560,14
2017-01-05 08:28:00,08:28:02,08:28:59,10979,11147,19555.0,67,19560.0,10,19560.0,19570.0,19560.0,19570.0,136,116,19565,56,19570,38
2017-01-05 08:29:00,08:29:00,08:29:58,11150,11403,19565.0,56,19570.0,38,19570.0,19575.0,19565.0,19575.0,215,59,19570,41,19575,60
2017-01-05 08:30:00,08:30:00,08:30:53,11406,11691,19570.0,41,19575.0,60,19570.0,19585.0,19570.0,19580.0,284,-16,19575,68,19580,20
2017-01-05 08:31:00,08:31:00,08:31:56,11704,12156,19575.0,121,19580.0,21,19580.0,19600.0,19580.0,19600.0,559,193,19595,48,19600,47
2017-01-05 08:32:00,08:32:00,08:32:48,12164,12420,19595.0,51,19600.0,53,19595.0,19600.0,19590.0,19590.0,241,41,19590,57,19595,38
2017-01-05 08:33:00,08:33:02,08:33:54,12436,12630,19590.0,49,19595.0,67,19590.0,19595.0,19590.0,19595.0,217,-83,19595,12,19600,65
2017-01-05 08:34:00,08:34:01,08:34:56,12640,12700,19595.0,23,19600.0,65,19595.0,19595.0,19595.0,19595.0,11,-11,19595,24,19600,76
2017-01-05 08:35:00,08:35:03,08:35:56,12712,12931,19595.0,11,19600.0,79,19595.0,19595.0,19580.0,19580.0,156,-72,19580,44,19585,96
2017-01-05 08:36:00,08:36:00,08:36:58,12934,13198,19580.0,41,19585.0,93,19580.0,19585.0,19575.0,19585.0,218,66,19580,45,19585,31
2017-01-05 08:37:00,08:37:03,08:37:56,13206,13398,19580.0,42,19585.0,33,19580.0,19580.0,19575.0,19575.0,155,33,19575,53,19580,36
2017-01-05 08:38:00,08:38:02,08:38:56,13411,13542,19575.0,73,19580.0,25,19575.0,19580.0,19575.0,19575.0,66,4,19575,41,19580,74
2017-01-05 08:39:00,08:39:01,08:39:55,13547,13675,19575.0,43,19580.0,69,19575.0,19580.0,19575.0,19575.0,81,-69,19575,27,19580,84
2017-01-05 08:40:00,08:40:01,08:40:52,13683,13742,19575.0,46,19580.0,82,19575.0,19575.0,19575.0,19575.0,14,-14,19575,56,19580,91
2017-01-05 08:41:00,08:41:06,08:41:57,13758,13994,19575.0,54,19580.0,96,19580.0,19580.0,19570.0,19570.0,203,49,19570,49,19575,59
2017-01-05 08:42:00,08:42:00,08:42:55,14004,14298,19570.0,54,19575.0,61,19575.0,19575.0,19565.0,19575.0,334,75,19570,65,19575,2
2017-01-05 08:43:00,08:43:05,08:43:57,14315,14561,19570.0,45,19575.0,45,19570.0,19570.0,19560.0,19565.0,174,-68,19560,57,19565,34
2017-01-05 08:44:00,08:44:04,08:44:59,14575,14848,19560.0,31,19565.0,56,19560.0,19560.0,19555.0,19555.0,202,-127,19555,3,19560,59
2017-01-05 08:45:00,08:45:00,08:45:59,14849,15110,19550.0,102,19555.0,1,19555.0,19565.0,19555.0,19565.0,229,48,19560,72,19565,7
2017-01-05 08:46:00,08:46:01,08:46:53,15118,15292,19560.0,34,19565.0,51,19560.0,19565.0,19555.0,19560.0,115,-34,19560,61,19565,29
2017-01-05 08:47:00,08:47:03,08:47:42,15307,15389,19560.0,59,19565.0,48,19560.0,19565.0,19560.0,19560.0,54,-52,19560,14,19565,65
2017-01-05 08:48:00,08:48:03,08:48:58,15405,15672,19560.0,10,19565.0,68,19560.0,19570.0,19555.0,19565.0,374,38,19565,63,19570,57
2017-01-05 08:49:00,08:49:02,08:49:57,15677,15872,19565.0,65,19570.0,56,19565.0,19570.0,19560.0,19565.0,181,-127,19565,41,19570,55
2017-01-05 08:50:00,08:50:06,08:50:55,15892,15969,19565.0,36,19570.0,63,19565.0,19565.0,19565.0,19565.0,37,-31,19565,4,19570,77
2017-01-05 08:51:00,08:51:04,08:51:58,15978,16204,19565.0,4,19570.0,78,19570.0,19580.0,19570.0,19570.0,205,153,19570,16,19575,42
2017-01-05 08:52:00,08:52:07,08:52:55,16218,16400,19570.0,54,19575.0,40,19570.0,19580.0,19570.0,19570.0,129,53,19570,45,19575,40
2017-01-05 08:53:00,08:53:00,08:53:59,16406,16570,19570.0,45,19575.0,43,19570.0,19580.0,19565.0,19575.0,132,6,19575,16,19580,59
2017-01-05 08:54:00,08:54:04,08:54:59,16576,16758,19575.0,19,19580.0,59,19575.0,19580.0,19560.0,19560.0,92,-18,19560,30,19565,45
2017-01-05 08:55:00,08:55:01,08:55:58,16767,16902,19560.0,54,19565.0,21,19565.0,19565.0,19555.0,19555.0,63,-21,19555,38,19560,51
2017-01-05 08:56:00,08:56:02,08:56:57,16912,17374,19555.0,31,19560.0,66,19555.0,19555.0,19540.0,19545.0,525,-285,19545,58,19550,13
2017-01-05 08:57:00,08:57:00,08:57:55,17385,17537,19545.0,56,19550.0,26,19545.0,19550.0,19545.0,19550.0,71,-21,19545,21,19550,47
2017-01-05 08:58:00,08:58:01,08:58:58,17551,17775,19545.0,56,19550.0,41,19550.0,19550.0,19540.0,19545.0,259,9,19540,54,19545,16
2017-01-05 08:59:00,08:59:10,08:59:58,17805,18110,19540.0,37,19545.0,40,19540.0,19540.0,19530.0,19540.0,284,-18,19540,12,19545,40
2017-01-05 09:00:00,09:00:00,09:00:58,18116,18315,19540.0,21,19545.0,36,19540.0,19545.0,19535.0,19535.0,128,-112,19535,16,19540,51
2017-01-05 09:01:00,09:01:04,09:01:56,18319,18603,19535.0,27,19540.0,51,19535.0,19540.0,19535.0,19540.0,221,79,19540,5,19545,62
2017-01-05 09:02:00,09:02:03,09:02:59,18623,18805,19540.0,52,19545.0,32,19540.0,19540.0,19535.0,19535.0,112,-49,19535,26,19540,65
2017-01-05 09:03:00,09:03:00,09:03:59,18806,19241,19535.0,30,19540.0,52,19535.0,19540.0,19520.0,19535.0,503,-145,19535,17,19540,67
2017-01-05 09:04:00,09:04:03,09:04:57,19249,19405,19535.0,29,19540.0,66,19535.0,19535.0,19535.0,19535.0,143,-133,19530,81,19535,28
2017-01-05 09:05:00,09:05:00,09:05:59,19411,19554,19530.0,70,19535.0,27,19530.0,19535.0,19525.0,19525.0,96,-21,19525,45,19530,104
2017-01-05 09:06:00,09:06:00,09:06:49,19557,20031,19525.0,45,19530.0,104,19525.0,19555.0,19525.0,19550.0,623,287,19550,11,19555,54
2017-01-05 09:07:00,09:07:00,09:07:48,20061,20229,19550.0,31,19555.0,33,19550.0,19550.0,19545.0,19545.0,109,-107,19545,5,19550,59
2017-01-05 09:08:00,09:08:04,09:08:55,20249,20622,19545.0,12,19550.0,61,19550.0,19550.0,19530.0,19530.0,421,-158,19530,18,19535,48
2017-01-05 09:09:00,09:09:01,09:09:59,20636,20856,19530.0,31,19535.0,44,19530.0,19540.0,19530.0,19540.0,225,47,19535,67,19540,2
2017-01-05 09:10:00,09:10:00,09:10:59,20859,21057,19535.0,67,19540.0,2,19540.0,19540.0,19535.0,19540.0,134,56,19540,7,19545,69
2017-01-05 09:11:00,09:11:01,09:11:55,21059,21202,19540.0,7,19545.0,68,19540.0,19545.0,19540.0,19540.0,83,17,19540,60,19545,28
2017-01-05 09:12:00,09:12:07,09:12:56,21215,21285,19540.0,62,19545.0,18,19540.0,19540.0,19540.0,19540.0,34,-34,19535,40,19540,36
2017-01-05 09:13:00,09:13:02,09:13:56,21301,21474,19535.0,82,19540.0,25,19535.0,19545.0,19535.0,19545.0,131,83,19540,50,19545,33
2017-01-05 09:14:00,09:14:00,09:14:39,21478,21522,19540.0,50,19545.0,34,19540.0,19545.0,19540.0,19540.0,25,15,19540,50,19545,52
2017-01-05 09:15:00,09:15:03,09:15:51,21562,21809,19540.0,25,19545.0,103,19540.0,19560.0,19540.0,19555.0,278,180,19555,36,19560,57
2017-01-05 09:16:00,09:16:15,09:16:55,21854,21946,19555.0,41,19560.0,49,19560.0,19560.0,19555.0,19560.0,46,36,19555,53,19560,36
2017-01-05 09:17:00,09:17:00,09:17:54,21960,22027,19555.0,39,19560.0,48,19555.0,19555.0,19555.0,19555.0,34,-34,19550,77,19555,11
2017-01-05 09:18:00,09:18:10,09:18:55,22047,22147,19550.0,71,19555.0,42,19555.0,19555.0,19550.0,19550.0,56,28,19550,67,19555,36
2017-01-05 09:19:00,09:19:04,09:19:53,22159,22251,19550.0,74,19555.0,21,19550.0,19555.0,19550.0,19550.0,37,5,19550,56,19555,29
2017-01-05 09:20:00,09:20:12,09:20:52,22268,22419,19550.0,62,19555.0,27,19550.0,19560.0,19550.0,19555.0,122,30,19555,15,19560,56
2017-01-05 09:21:00,09:21:01,09:21:54,22429,22585,19555.0,20,19560.0,56,19555.0,19560.0,19555.0,19560.0,109,39,19555,74,19560,20
2017-01-05 09:22:00,09:22:02,09:22:45,22599,22681,19555.0,71,19560.0,8,19560.0,19560.0,19555.0,19555.0,15,2,19555,48,19560,49
2017-01-05 09:23:00,09:23:00,09:23:57,22705,22918,19555.0,64,19560.0,41,19555.0,19570.0,19555.0,19560.0,275,195,19560,4,19565,62
2017-01-05 09:24:00,09:24:01,09:24:45,22925,23017,19560.0,15,19565.0,62,19560.0,19560.0,19555.0,19560.0,50,-12,19560,23,19565,65
2017-01-05 09:25:00,09:25:00,09:25:56,23041,23300,19560.0,31,19565.0,71,19560.0,19570.0,19560.0,19565.0,246,-30,19565,22,19570,54
2017-01-05 09:26:00,09:26:11,09:26:59,23334,23457,19565.0,20,19570.0,56,19565.0,19570.0,19565.0,19570.0,75,-7,19565,57,19570,7
2017-01-05 09:27:00,09:27:00,09:27:58,23461,23661,19565.0,57,19570.0,9,19570.0,19570.0,19560.0,19565.0,173,-31,19560,55,19565,21
2017-01-05 09:28:00,09:28:02,09:28:59,23669,23809,19560.0,54,19565.0,30,19565.0,19565.0,19560.0,19565.0,86,-4,19565,3,19570,61
2017-01-05 09:29:00,09:29:07,09:29:56,23822,23920,19565.0,12,19570.0,60,19565.0,19565.0,19565.0,19565.0,22,-14,19565,15,19570,70
2017-01-05 09:30:00,09:30:00,09:30:44,23926,24142,19565.0,6,19570.0,70,19565.0,19565.0,19545.0,19545.0,218,-36,19545,58,19550,22
2017-01-05 09:31:00,09:31:00,09:31:57,24161,24352,19545.0,42,19550.0,46,19545.0,19555.0,19545.0,19555.0,141,37,19550,50,19560,50
2017-01-05 09:32:00,09:32:00,09:32:57,24360,24475,19550.0,48,19555.0,20,19550.0,19560.0,19550.0,19550.0,76,-46,19550,32,19555,41
2017-01-05 09:33:00,09:33:07,09:33:57,24495,24703,19550.0,17,19555.0,45,19550.0,19550.0,19535.0,19535.0,195,-39,19535,43,19540,39
2017-01-05 09:34:00,09:34:01,09:34:51,24713,24842,19535.0,46,19540.0,52,19535.0,19540.0,19535.0,19535.0,83,41,19535,34,19540,64
2017-01-05 09:35:00,09:35:03,09:35:58,24852,25088,19535.0,39,19540.0,64,19540.0,19545.0,19540.0,19540.0,227,113,19540,77,19545,2
2017-01-05 09:36:00,09:36:01,09:36:46,25093,25192,19540.0,78,19545.0,1,19545.0,19550.0,19545.0,19545.0,42,-4,19545,31,19550,50
2017-01-05 09:37:00,09:37:05,09:37:59,25206,25373,19545.0,27,19550.0,50,19545.0,19545.0,19535.0,19545.0,160,20,19545,40,19550,41
2017-01-05 09:38:00,09:38:03,09:38:59,25382,25637,19545.0,30,19550.0,49,19545.0,19560.0,19545.0,19560.0,215,115,19555,41,19560,25
2017-01-05 09:39:00,09:39:01,09:39:57,25642,25850,19555.0,41,19560.0,25,19560.0,19565.0,19555.0,19555.0,159,-15,19555,14,19560,51
2017-01-05 09:40:00,09:40:00,09:40:48,25854,25940,19555.0,10,19560.0,51,19555.0,19555.0,19545.0,19550.0,35,-9,19550,38,19555,36
2017-01-05 09:41:00,09:41:00,09:41:58,25953,26229,19550.0,38,19555.0,38,19550.0,19555.0,19540.0,19545.0,314,-92,19545,47,19550,36
2017-01-05 09:42:00,09:42:00,09:42:48,26235,26338,19545.0,44,19550.0,50,19545.0,19545.0,19540.0,19540.0,77,-77,19540,48,19545,31
2017-01-05 09:43:00,09:43:04,09:43:58,26350,26532,19540.0,19,19545.0,43,19540.0,19545.0,19535.0,19540.0,139,-45,19540,10,19545,52
2017-01-05 09:44:00,09:44:01,09:44:50,26537,26655,19540.0,15,19545.0,52,19540.0,19545.0,19540.0,19540.0,61,-4,19540,49,19545,8
2017-01-05 09:45:00,09:45:03,09:45:41,26674,26774,19540.0,53,19545.0,23,19540.0,19550.0,19540.0,19545.0,75,35,19540,58,19545,8
2017-01-05 09:46:00,09:46:02,09:46:58,26793,26966,19540.0,57,19545.0,22,19540.0,19540.0,19535.0,19535.0,130,26,19535,44,19540,26
2017-01-05 09:47:00,09:47:04,09:47:57,26974,27116,19535.0,41,19540.0,24,19540.0,19550.0,19540.0,19550.0,131,117,19545,46,19550,69
2017-01-05 09:48:00,09:48:02,09:48:56,27119,27274,19545.0,46,19550.0,69,19545.0,19545.0,19540.0,19545.0,71,13,19540,50,19545,15
2017-01-05 09:49:00,09:49:15,09:49:39,27289,27309,19540.0,49,19545.0,21,19540.0,19545.0,19540.0,19540.0,7,-5,19540,43,19545,41
2017-01-05 09:50:00,09:50:00,09:50:58,27315,27434,19540.0,44,19545.0,41,19540.0,19550.0,19540.0,19550.0,91,-23,19545,2,19550,72
2017-01-05 09:51:00,09:51:01,09:51:43,27438,27526,19545.0,3,19550.0,72,19545.0,19545.0,19540.0,19545.0,36,12,19540,58,19545,9
2017-01-05 09:52:00,09:52:01,09:52:52,27537,27692,19540.0,61,19545.0,11,19545.0,19555.0,19540.0,19545.0,168,98,19545,26,19550,43
2017-01-05 09:53:00,09:53:05,09:53:59,27708,27809,19545.0,39,19550.0,42,19545.0,19555.0,19545.0,19550.0,70,42,19550,50,19555,50
2017-01-05 09:54:00,09:54:04,09:54:53,27816,27919,19550.0,50,19555.0,51,19550.0,19555.0,19550.0,19555.0,76,6,19555,26,19560,46
2017-01-05 09:55:00,09:55:03,09:55:53,27935,28013,19555.0,43,19560.0,42,19555.0,19555.0,19550.0,19550.0,80,-46,19550,51,19555,27
2017-01-05 09:56:00,09:56:05,09:56:53,28025,28122,19550.0,48,19555.0,32,19555.0,19560.0,19550.0,19555.0,111,-23,19550,42,19555,42
2017-01-05 09:57:00,09:57:10,09:57:48,28138,28254,19550.0,50,19555.0,49,19550.0,19550.0,19540.0,19540.0,134,-134,19540,8,19545,52
2017-01-05 09:58:00,09:58:06,09:58:54,28262,28408,19540.0,12,19545.0,54,19540.0,19540.0,19535.0,19540.0,111,37,19540,34,19545,44
2017-01-05 09:59:00,09:59:00,09:59:58,28413,28530,19540.0,29,19545.0,44,19540.0,19545.0,19530.0,19530.0,54,-50,19530,44,19535,30
2017-01-05 10:00:00,10:00:00,10:00:56,28534,28632,19530.0,47,19535.0,30,19530.0,19535.0,19530.0,19530.0,53,41,19530,32,19535,39
2017-01-05 10:01:00,10:01:01,10:01:46,28637,28797,19530.0,32,19535.0,39,19530.0,19540.0,19530.0,19535.0,147,109,19535,34,19540,29
2017-01-05 10:02:00,10:02:01,10:02:57,28806,28945,19535.0,37,19540.0,31,19535.0,19545.0,19535.0,19535.0,90,42,19535,46,19540,26
2017-01-05 10:03:00,10:03:17,10:03:58,28966,29050,19535.0,48,19540.0,28,19535.0,19540.0,19535.0,19540.0,56,12,19535,43,19540,8
2017-01-05 10:04:00,10:04:04,10:04:56,29060,29162,19535.0,42,19540.0,21,19540.0,19540.0,19535.0,19535.0,43,17,19535,36,19540,33
2017-01-05 10:05:00,10:05:14,10:05:53,29176,29240,19535.0,36,19540.0,43,19535.0,19535.0,19535.0,19535.0,33,-9,19535,10,19540,39
2017-01-05 10:06:00,10:06:00,10:06:57,29249,29362,19535.0,24,19540.0,39,19535.0,19540.0,19535.0,19535.0,60,-12,19535,12,19540,41
2017-01-05 10:07:00,10:07:01,10:07:55,29366,29474,19535.0,21,19540.0,44,19535.0,19540.0,19535.0,19540.0,62,54,19540,5,19545,51
2017-01-05 10:08:00,10:08:00,10:08:57,29489,29547,19540.0,17,19545.0,40,19540.0,19540.0,19540.0,19540.0,9,-9,19540,22,19545,49
2017-01-05 10:09:00,10:09:07,10:09:46,29559,29597,19540.0,11,19545.0,51,19540.0,19545.0,19540.0,19540.0,7,-5,19540,12,19545,56
2017-01-05 10:10:00,10:10:10,10:10:58,29612,29728,19540.0,6,19545.0,57,19540.0,19545.0,19540.0,19540.0,67,35,19540,51,19545,29
2017-01-05 10:11:00,10:11:08,10:11:48,29739,29852,19540.0,49,19545.0,34,19540.0,19545.0,19535.0,19535.0,88,34,19535,25,19540,39
2017-01-05 10:12:00,10:12:00,10:12:59,29866,30051,19535.0,44,19540.0,31,19535.0,19535.0,19530.0,19530.0,166,36,19530,46,19535,31
2017-01-05 10:13:00,10:13:02,10:13:58,30059,30291,19530.0,51,19535.0,20,19535.0,19535.0,19530.0,19530.0,367,-211,19530,61,19535,24
2017-01-05 10:14:00,10:14:01,10:14:58,30296,30420,19530.0,63,19535.0,25,19535.0,19540.0,19530.0,19535.0,64,-24,19535,20,19540,49
2017-01-05 10:15:00,10:15:42,10:15:54,30453,30492,19535.0,5,19540.0,55,19535.0,19535.0,19530.0,19530.0,26,10,19530,91,19535,41
2017-01-05 10:16:00,10:16:04,10:16:51,30499,30699,19530.0,91,19535.0,36,19535.0,19535.0,19525.0,19530.0,222,1,19530,31,19535,30
2017-01-05 10:17:00,10:17:00,10:17:50,30712,30779,19530.0,40,19535.0,19,19530.0,19535.0,19530.0,19535.0,56,10,19530,47,19535,19
2017-01-05 10:18:00,10:18:29,10:18:33,30826,30862,19530.0,34,19535.0,41,19535.0,19535.0,19535.0,19535.0,39,36,19530,48,19540,43
2017-01-05 10:19:00,10:19:48,10:19:57,30896,30956,19535.0,29,19540.0,46,19540.0,19540.0,19540.0,19540.0,56,2,19535,62,19545,81
2017-01-05 10:20:00,10:20:00,10:20:25,30961,31067,19535.0,55,19540.0,14,19540.0,19540.0,19535.0,19535.0,91,-3,19530,47,19535,7
2017-01-05 10:21:00,10:21:02,10:21:59,31094,31158,19530.0,46,19535.0,35,19535.0,19535.0,19530.0,19530.0,12,-6,19525,51,19530,24
2017-01-05 10:22:00,10:22:00,10:22:57,31162,31338,19525.0,51,19530.0,26,19525.0,19530.0,19525.0,19525.0,130,52,19525,4,19530,67
2017-01-05 10:23:00,10:23:05,10:23:23,31352,31394,19525.0,33,19530.0,63,19525.0,19525.0,19525.0,19525.0,29,-29,19525,27,19530,63
2017-01-05 10:24:00,10:24:02,10:24:56,31439,31547,19525.0,9,19530.0,75,19525.0,19530.0,19525.0,19525.0,75,-7,19520,47,19525,30
2017-01-05 10:25:00,10:25:04,10:25:33,31554,31622,19520.0,46,19525.0,25,19525.0,19530.0,19525.0,19530.0,39,29,19525,37,19530,47
2017-01-05 10:26:00,10:26:00,10:26:43,31647,31686,19525.0,20,19530.0,64,19525.0,19525.0,19525.0,19525.0,5,-5,19525,25,19530,74
2017-01-05 10:27:00,10:27:13,10:27:53,31710,31785,19525.0,46,19530.0,68,19525.0,19530.0,19525.0,19530.0,68,42,19530,26,19535,62
2017-01-05 10:28:00,10:28:16,10:28:59,31802,31910,19530.0,27,19535.0,67,19530.0,19535.0,19530.0,19535.0,83,-81,19530,10,19535,59
2017-01-05 10:29:00,10:29:16,10:29:59,31929,32057,19530.0,28,19535.0,57,19530.0,19530.0,19525.0,19530.0,84,-24,19525,54,19530,5
2017-01-05 10:30:00,10:30:05,10:30:59,32076,32174,19525.0,30,19530.0,38,19525.0,19530.0,19525.0,19525.0,55,-13,19525,11,19530,37
2017-01-05 10:31:00,10:31:09,10:31:54,32186,32231,19525.0,9,19530.0,44,19525.0,19530.0,19525.0,19525.0,13,-7,19525,31,19530,38
2017-01-05 10:32:00,10:32:00,10:32:55,32235,32289,19525.0,31,19530.0,40,19525.0,19530.0,19525.0,19525.0,9,-7,19525,16,19530,58
2017-01-05 10:33:00,10:33:01,10:33:56,32295,32382,19525.0,16,19530.0,58,19525.0,19530.0,19525.0,19525.0,29,-21,19525,11,19530,51
2017-01-05 10:34:00,10:34:02,10:34:53,32389,32548,19525.0,17,19530.0,50,19525.0,19530.0,19525.0,19525.0,139,63,19525,29,19530,56
2017-01-05 10:35:00,10:35:00,10:35:58,32552,32730,19525.0,30,19530.0,56,19525.0,19530.0,19520.0,19525.0,159,71,19520,43,19525,5
2017-01-05 10:36:00,10:36:01,10:36:54,32737,32803,19520.0,43,19525.0,19,19525.0,19530.0,19525.0,19530.0,62,52,19525,42,19530,46
2017-01-05 10:37:00,10:37:24,10:37:27,32818,32856,19525.0,45,19530.0,35,19530.0,19530.0,19530.0,19530.0,50,50,19525,42,19530,20
2017-01-05 10:38:00,10:38:03,10:38:35,32869,32937,19525.0,44,19530.0,40,19525.0,19530.0,19525.0,19530.0,61,37,19525,60,19530,6
2017-01-05 10:39:00,10:39:23,10:39:53,32970,32983,19525.0,79,19530.0,10,19525.0,19530.0,19525.0,19530.0,10,0,19525,77,19530,7
2017-01-05 10:40:00,10:40:10,10:40:10,32992,32992,19525.0,77,19530.0,12,19530.0,19530.0,19530.0,19530.0,1,1,19525,64,19530,11
2017-01-05 10:41:00,10:41:03,10:41:46,33016,33105,19525.0,60,19530.0,30,19525.0,19530.0,19525.0,19525.0,59,-35,19525,3,19530,47
2017-01-05 10:42:00,10:42:06,10:42:53,33117,33186,19525.0,5,19530.0,49,19530.0,19530.0,19530.0,19530.0,36,22,19525,44,19530,3
2017-01-05 10:43:00,10:43:07,10:43:38,33193,33221,19525.0,44,19530.0,3,19525.0,19535.0,19525.0,19530.0,8,2,19525,42,19530,8
2017-01-05 10:44:00,10:44:00,10:44:21,33234,33268,19525.0,43,19530.0,7,19525.0,19530.0,19525.0,19530.0,14,6,19530,7,19535,56
2017-01-05 10:45:00,10:45:02,10:45:18,33283,33317,19530.0,9,19535.0,58,19535.0,19535.0,19535.0,19535.0,56,52,19530,49,19535,34
2017-01-05 10:46:00,10:46:04,10:46:55,33332,33439,19530.0,50,19535.0,40,19530.0,19535.0,19530.0,19530.0,104,-34,19525,50,19530,1
2017-01-05 10:47:00,10:47:47,10:47:47,33454,33455,19525.0,47,19530.0,27,19530.0,19530.0,19530.0,19530.0,2,2,19525,46,19530,25
2017-01-05 10:48:00,10:48:00,10:48:00,0,0,0.0,0,0.0,0,19530.0,19530.0,19530.0,19530.0,0,0,0,0,0,0
2017-01-05 10:49:00,10:49:16,10:49:53,33471,33487,19525.0,52,19530.0,34,19525.0,19525.0,19525.0,19525.0,12,-12,19520,44,19525,1
2017-01-05 10:50:00,10:50:05,10:50:38,33493,33524,19520.0,44,19525.0,13,19525.0,19525.0,19520.0,19525.0,28,26,19525,7,19530,42
2017-01-05 10:51:00,10:51:13,10:51:42,33537,33574,19525.0,15,19530.0,42,19525.0,19525.0,19520.0,19520.0,24,12,19520,42,19525,3
2017-01-05 10:52:00,10:52:00,10:52:00,0,0,0.0,0,0.0,0,19520.0,19520.0,19520.0,19520.0,0,0,0,0,0,0
2017-01-05 10:53:00,10:53:00,10:53:00,33607,33614,19520.0,40,19525.0,22,19520.0,19520.0,19520.0,19520.0,12,-12,19520,32,19525,31
2017-01-05 10:54:00,10:54:09,10:54:45,33643,33656,19520.0,38,19525.0,37,19520.0,19520.0,19520.0,19520.0,3,-3,19520,33,19525,41
2017-01-05 10:55:00,10:55:02,10:55:47,33669,33706,19520.0,24,19525.0,42,19520.0,19520.0,19520.0,19520.0,28,-28,19520,32,19525,36
2017-01-05 10:56:00,10:56:26,10:56:56,33720,33744,19520.0,33,19525.0,38,19520.0,19520.0,19520.0,19520.0,6,-6,19520,22,19525,43
2017-01-05 10:57:00,10:57:06,10:57:57,33750,33811,19520.0,24,19525.0,41,19520.0,19520.0,19510.0,19510.0,44,-44,19510,30,19515,25
2017-01-05 10:58:00,10:58:04,10:58:58,33818,33921,19510.0,36,19515.0,34,19510.0,19515.0,19505.0,19505.0,63,-27,19505,46,19510,56
2017-01-05 10:59:00,10:59:06,10:59:58,33926,34059,19505.0,32,19510.0,57,19505.0,19510.0,19500.0,19510.0,164,-6,19505,46,19510,10
2017-01-05 11:00:00,11:00:00,11:00:54,34065,34184,19505.0,43,19510.0,13,19510.0,19510.0,19505.0,19505.0,86,-72,19500,62,19510,47
2017-01-05 11:01:00,11:01:01,11:01:57,34196,34297,19500.0,66,19505.0,7,19505.0,19505.0,19505.0,19505.0,74,-28,19505,2,19510,50
2017-01-05 11:02:00,11:02:00,11:02:57,34300,34583,19505.0,2,19510.0,50,19505.0,19505.0,19485.0,19495.0,395,-161,19495,57,19500,25
2017-01-05 11:03:00,11:03:29,11:03:50,34614,34668,19495.0,59,19500.0,34,19495.0,19495.0,19495.0,19495.0,88,-68,19495,22,19500,46
2017-01-05 11:04:00,11:04:08,11:04:51,34682,34742,19495.0,31,19500.0,37,19495.0,19495.0,19495.0,19495.0,106,-106,19495,28,19500,45
2017-01-05 11:05:00,11:05:04,11:05:46,34750,34781,19495.0,30,19500.0,52,19495.0,19495.0,19495.0,19495.0,26,-20,19490,35,19495,37
2017-01-05 11:06:00,11:06:04,11:06:56,34801,34913,19490.0,33,19495.0,38,19495.0,19495.0,19480.0,19485.0,79,1,19485,22,19490,44
2017-01-05 11:07:00,11:07:00,11:07:58,34916,35060,19485.0,22,19490.0,44,19485.0,19490.0,19480.0,19490.0,118,14,19485,47,19490,33
2017-01-05 11:08:00,11:08:03,11:08:49,35068,35106,19485.0,47,19490.0,34,19490.0,19490.0,19485.0,19490.0,16,14,19485,47,19490,16
2017-01-05 11:09:00,11:09:19,11:09:31,35119,35145,19485.0,48,19490.0,24,19490.0,19490.0,19490.0,19490.0,23,23,19485,50,19490,10
2017-01-05 11:10:00,11:10:16,11:10:39,35179,35197,19485.0,73,19490.0,20,19490.0,19490.0,19485.0,19490.0,8,6,19485,69,19490,26
2017-01-05 11:11:00,11:11:00,11:11:52,35204,35229,19485.0,69,19490.0,30,19485.0,19490.0,19485.0,19490.0,6,2,19485,65,19490,32
2017-01-05 11:12:00,11:12:19,11:12:50,35237,35311,19485.0,66,19490.0,39,19485.0,19495.0,19485.0,19490.0,72,44,19490,71,19495,23
2017-01-05 11:13:00,11:13:00,11:13:52,35318,35414,19490.0,70,19495.0,27,19490.0,19495.0,19485.0,19485.0,72,-62,19485,41,19490,38
2017-01-05 11:14:00,11:14:01,11:14:53,35422,35510,19485.0,39,19490.0,39,19485.0,19485.0,19480.0,19480.0,67,-65,19480,41,19485,27
2017-01-05 11:15:00,11:15:02,11:15:50,35525,35836,19480.0,43,19485.0,31,19480.0,19490.0,19470.0,19485.0,444,28,19485,5,19490,47
2017-01-05 11:16:00,11:16:03,11:16:54,35847,35995,19485.0,30,19490.0,41,19485.0,19485.0,19480.0,19480.0,89,-53,19480,36,19485,21
2017-01-05 11:17:00,11:17:00,11:17:59,36006,36215,19480.0,40,19485.0,25,19480.0,19480.0,19470.0,19480.0,178,4,19475,51,19480,8
2017-01-05 11:18:00,11:18:05,11:18:59,36226,36333,19475.0,46,19480.0,24,19475.0,19480.0,19475.0,19480.0,92,38,19480,51,19485,86
2017-01-05 11:19:00,11:19:36,11:19:56,36351,36365,19480.0,63,19485.0,86,19480.0,19480.0,19480.0,19480.0,5,-5,19480,58,19485,86
2017-01-05 11:20:00,11:20:00,11:20:55,36368,36415,19480.0,58,19485.0,86,19480.0,19485.0,19480.0,19485.0,15,13,19480,61,19485,73
2017-01-05 11:21:00,11:21:27,11:21:47,36441,36455,19480.0,63,19485.0,75,19480.0,19480.0,19480.0,19480.0,4,-4,19480,68,19485,77
2017-01-05 11:22:00,11:22:17,11:22:53,36466,36543,19480.0,68,19485.0,77,19480.0,19485.0,19480.0,19480.0,132,-109,19480,45,19485,58
2017-01-05 11:23:00,11:23:22,11:23:50,36571,36643,19480.0,37,19485.0,58,19485.0,19485.0,19485.0,19485.0,77,21,19485,14,19490,54
2017-01-05 11:24:00,11:24:02,11:24:45,36650,36775,19485.0,17,19490.0,56,19485.0,19490.0,19485.0,19485.0,86,22,19480,63,19485,12
2017-01-05 11:25:00,11:25:12,11:25:16,36792,36808,19480.0,59,19485.0,32,19485.0,19490.0,19485.0,19490.0,9,9,19485,10,19490,83
2017-01-05 11:26:00,11:26:03,11:26:41,36833,36943,19485.0,54,19490.0,63,19490.0,19500.0,19490.0,19495.0,160,90,19490,57,19500,61
2017-01-05 11:27:00,11:27:00,11:27:57,36957,36977,19495.0,68,19500.0,58,19500.0,19500.0,19495.0,19495.0,3,1,19495,69,19500,64
2017-01-05 11:28:00,11:28:17,11:28:48,36983,37030,19495.0,69,19500.0,67,19495.0,19495.0,19495.0,19495.0,116,-8,19495,33,19500,61
2017-01-05 11:29:00,11:29:00,11:29:50,37044,37133,19495.0,48,19500.0,45,19495.0,19500.0,19495.0,19495.0,108,62,19495,17,19500,41
2017-01-05 11:30:00,11:30:00,11:30:58,37146,37482,19495.0,32,19500.0,47,19500.0,19510.0,19500.0,19500.0,326,-42,19500,15,19505,50
2017-01-05 11:31:00,11:31:00,11:31:55,37488,37630,19500.0,15,19505.0,54,19500.0,19505.0,19500.0,19500.0,124,-39,19500,46,19505,35
2017-01-05 11:32:00,11:32:45,11:32:50,37666,37696,19500.0,40,19505.0,44,19500.0,19500.0,19500.0,19500.0,33,-17,19495,49,19500,13
2017-01-05 11:33:00,11:33:06,11:33:59,37711,37842,19495.0,38,19500.0,31,19495.0,19505.0,19495.0,19505.0,82,70,19500,38,19510,38
2017-01-05 11:34:00,11:34:03,11:34:20,37847,37880,19500.0,39,19505.0,10,19505.0,19505.0,19500.0,19505.0,33,13,19500,40,19505,6
2017-01-05 11:35:00,11:35:15,11:35:50,37934,38043,19500.0,43,19505.0,24,19505.0,19505.0,19500.0,19500.0,111,17,19495,39,19500,8
2017-01-05 11:36:00,11:36:55,11:36:57,38083,38116,19495.0,52,19500.0,34,19500.0,19505.0,19500.0,19505.0,51,51,19505,5,19510,33
2017-01-05 11:37:00,11:37:00,11:37:59,38125,38366,19505.0,6,19510.0,32,19505.0,19515.0,19505.0,19510.0,241,105,19505,33,19510,32
2017-01-05 11:38:00,11:38:00,11:38:29,38368,38498,19505.0,26,19510.0,32,19505.0,19505.0,19500.0,19505.0,136,-60,19505,33,19510,27
2017-01-05 11:39:00,11:39:39,11:39:52,38574,38621,19505.0,42,19510.0,37,19510.0,19515.0,19510.0,19510.0,28,10,19505,35,19510,17
2017-01-05 11:40:00,11:40:07,11:40:56,38630,38754,19505.0,42,19510.0,19,19510.0,19515.0,19510.0,19510.0,88,54,19505,46,19515,45
2017-01-05 11:41:00,11:41:51,11:41:52,38794,38821,19505.0,29,19510.0,38,19505.0,19505.0,19505.0,19505.0,30,-23,19505,2,19510,42
2017-01-05 11:42:00,11:42:00,11:42:56,38835,38925,19505.0,23,19510.0,43,19510.0,19510.0,19510.0,19510.0,47,21,19505,42,19510,11
2017-01-05 11:43:00,11:43:01,11:43:58,38940,39071,19505.0,42,19510.0,19,19510.0,19510.0,19505.0,19505.0,83,-47,19505,9,19510,40
2017-01-05 11:44:00,11:44:19,11:44:58,39087,39153,19505.0,16,19510.0,49,19505.0,19505.0,19500.0,19500.0,59,-59,19500,48,19505,68
2017-01-05 11:45:00,11:45:11,11:45:53,39167,39281,19500.0,51,19505.0,53,19505.0,19510.0,19505.0,19510.0,131,61,19510,3,19515,43
2017-01-05 11:46:00,11:46:09,11:46:59,39310,39404,19510.0,10,19515.0,46,19510.0,19515.0,19510.0,19515.0,93,1,19510,27,19515,19
2017-01-05 11:47:00,11:47:00,11:47:52,39408,39533,19510.0,27,19515.0,24,19510.0,19515.0,19510.0,19515.0,98,29,19510,51,19515,10
2017-01-05 11:48:00,11:48:09,11:48:54,39557,39646,19510.0,34,19515.0,48,19510.0,19515.0,19510.0,19515.0,96,-24,19510,45,19515,5
2017-01-05 11:49:00,11:49:08,11:49:46,39666,39708,19510.0,47,19515.0,9,19515.0,19520.0,19515.0,19520.0,12,12,19515,34,19520,43
2017-01-05 11:50:00,11:50:11,11:50:55,39723,39852,19515.0,30,19520.0,51,19515.0,19515.0,19505.0,19505.0,65,-45,19505,5,19510,44
2017-01-05 11:51:00,11:51:20,11:51:58,39890,39970,19505.0,43,19510.0,31,19505.0,19510.0,19505.0,19505.0,51,-5,19505,38,19510,40
2017-01-05 11:52:00,11:52:53,11:52:53,39996,39996,19505.0,26,19510.0,52,19510.0,19510.0,19510.0,19510.0,1,1,19505,34,19510,46
2017-01-05 11:53:00,11:53:41,11:53:56,40031,40131,19505.0,47,19510.0,79,19505.0,19505.0,19500.0,19500.0,152,-152,19495,53,19500,17
2017-01-05 11:54:00,11:54:02,11:54:05,40144,40208,19495.0,45,19500.0,58,19495.0,19495.0,19495.0,19495.0,89,-25,19495,52,19500,55
2017-01-05 11:55:00,11:55:22,11:55:37,40263,40268,19495.0,54,19500.0,60,19495.0,19495.0,19495.0,19495.0,4,-4,19495,49,19500,64
2017-01-05 11:56:00,11:56:00,11:56:50,40281,40367,19495.0,46,19500.0,68,19495.0,19500.0,19495.0,19500.0,84,52,19495,66,19500,10
2017-01-05 11:57:00,11:57:29,11:57:49,40393,40447,19495.0,46,19500.0,57,19500.0,19500.0,19500.0,19500.0,46,46,19495,71,19500,14
2017-01-05 11:58:00,11:58:06,11:58:53,40453,40588,19495.0,69,19500.0,26,19500.0,19505.0,19500.0,19505.0,148,-20,19500,36,19505,48
2017-01-05 11:59:00,11:59:04,11:59:54,40597,40657,19500.0,20,19505.0,60,19500.0,19500.0,19500.0,19500.0,44,-44,19500,33,19505,60
2017-01-05 12:00:00,12:00:04,12:00:49,40670,40748,19500.0,12,19505.0,63,19500.0,19505.0,19500.0,19500.0,52,-10,19500,17,19505,52
2017-01-05 12:01:00,12:01:07,12:01:36,40758,40811,19500.0,24,19505.0,52,19505.0,19505.0,19505.0,19505.0,49,49,19505,33,19510,51
2017-01-05 12:02:00,12:02:01,12:02:48,40838,40885,19505.0,52,19510.0,76,19510.0,19510.0,19505.0,19505.0,41,-15,19500,46,19505,21
2017-01-05 12:03:00,12:03:07,12:03:52,40916,41057,19500.0,48,19505.0,39,19505.0,19510.0,19505.0,19505.0,119,61,19500,49,19510,51
2017-01-05 12:04:00,12:04:19,12:04:19,41076,41081,19500.0,48,19505.0,23,19505.0,19505.0,19505.0,19505.0,7,7,19500,50,19505,15
2017-01-05 12:05:00,12:05:00,12:05:46,41102,41242,19500.0,45,19505.0,21,19500.0,19505.0,19500.0,19500.0,144,-18,19500,39,19505,40
2017-01-05 12:06:00,12:06:00,12:06:58,41258,41312,19500.0,49,19505.0,30,19505.0,19505.0,19505.0,19505.0,48,48,19500,54,19505,1
2017-01-05 12:07:00,12:07:00,12:07:50,41316,41403,19500.0,54,19505.0,3,19505.0,19505.0,19505.0,19505.0,28,-4,19505,12,19510,58
2017-01-05 12:08:00,12:08:22,12:08:50,41424,41579,19505.0,19,19510.0,50,19505.0,19515.0,19505.0,19510.0,207,19,19505,35,19510,31
2017-01-05 12:09:00,12:09:01,12:09:54,41594,41706,19505.0,74,19510.0,33,19510.0,19510.0,19510.0,19510.0,105,105,19505,66,19510,15
2017-01-05 12:10:00,12:10:05,12:10:16,41715,41762,19505.0,69,19510.0,21,19510.0,19515.0,19510.0,19510.0,60,-14,19505,41,19510,13
2017-01-05 12:11:00,12:11:18,12:11:39,41821,41847,19505.0,53,19510.0,32,19510.0,19510.0,19505.0,19510.0,24,22,19505,47,19510,6
2017-01-05 12:12:00,12:12:17,12:12:47,41877,41937,19505.0,49,19510.0,10,19510.0,19510.0,19510.0,19510.0,63,-25,19510,28,19515,36
2017-01-05 12:13:00,12:13:11,12:13:58,41963,42108,19510.0,30,19515.0,34,19510.0,19520.0,19510.0,19520.0,103,-9,19515,37,19520,11
2017-01-05 12:14:00,12:14:00,12:14:24,42115,42141,19515.0,42,19520.0,15,19515.0,19515.0,19515.0,19515.0,10,-10,19515,23,19520,43
2017-01-05 12:15:00,12:15:08,12:15:54,42173,42326,19515.0,32,19520.0,38,19520.0,19530.0,19520.0,19525.0,152,92,19525,5,19530,47
2017-01-05 12:16:00,12:16:00,12:16:57,42340,42515,19525.0,41,19530.0,45,19530.0,19535.0,19530.0,19530.0,233,25,19525,68,19535,78
2017-01-05 12:17:00,12:17:07,12:17:10,42539,42546,19525.0,55,19530.0,45,19530.0,19530.0,19525.0,19525.0,3,1,19525,72,19530,28
2017-01-05 12:18:00,12:18:03,12:18:53,42584,42606,19525.0,59,19530.0,49,19530.0,19530.0,19530.0,19530.0,5,5,19525,68,19530,34
2017-01-05 12:19:00,12:19:06,12:19:57,42619,42688,19525.0,58,19530.0,51,19530.0,19530.0,19525.0,19530.0,42,40,19525,72,19530,8
2017-01-05 12:20:00,12:20:10,12:20:31,42698,42711,19525.0,79,19530.0,8,19530.0,19530.0,19530.0,19530.0,3,3,19525,72,19530,10
2017-01-05 12:21:00,12:21:04,12:21:20,42736,42745,19525.0,80,19530.0,32,19525.0,19530.0,19525.0,19530.0,5,3,19525,77,19530,26
2017-01-05 12:22:00,12:22:09,12:22:59,42786,42812,19525.0,88,19530.0,17,19530.0,19530.0,19525.0,19530.0,7,5,19525,89,19530,17
2017-01-05 12:23:00,12:23:00,12:23:48,42816,42833,19525.0,89,19530.0,18,19525.0,19530.0,19525.0,19530.0,4,2,19525,86,19530,36
2017-01-05 12:24:00,12:24:07,12:24:12,42839,42843,19525.0,84,19530.0,41,19530.0,19530.0,19525.0,19525.0,2,0,19525,82,19530,39
2017-01-05 12:25:00,12:25:02,12:25:56,42860,42880,19525.0,78,19530.0,44,19530.0,19530.0,19525.0,19525.0,4,2,19525,75,19530,47
2017-01-05 12:26:00,12:26:06,12:26:52,42886,43072,19525.0,75,19530.0,50,19525.0,19530.0,19515.0,19515.0,215,-213,19515,43,19520,63
2017-01-05 12:27:00,12:27:33,12:27:59,43097,43211,19515.0,21,19520.0,74,19515.0,19515.0,19510.0,19510.0,102,-102,19505,57,19515,61
2017-01-05 12:28:00,12:28:00,12:28:54,43215,43485,19505.0,57,19515.0,59,19510.0,19515.0,19505.0,19510.0,300,-15,19505,58,19515,48
2017-01-05 12:29:00,12:29:00,12:29:59,43496,43628,19510.0,8,19515.0,55,19510.0,19510.0,19510.0,19510.0,98,26,19510,2,19515,55
2017-01-05 12:30:00,12:30:02,12:30:26,43636,43727,19510.0,8,19515.0,52,19510.0,19515.0,19505.0,19510.0,99,-50,19510,10,19515,45
2017-01-05 12:31:00,12:31:02,12:31:56,43746,43817,19510.0,6,19515.0,57,19510.0,19515.0,19510.0,19510.0,55,21,19510,22,19515,52
2017-01-05 12:32:00,12:32:00,12:32:51,43819,43858,19510.0,22,19515.0,51,19510.0,19515.0,19510.0,19515.0,8,-4,19510,44,19515,43
2017-01-05 12:33:00,12:33:02,12:33:21,43869,43908,19510.0,40,19515.0,45,19515.0,19515.0,19515.0,19515.0,43,24,19515,3,19520,49
2017-01-05 12:34:00,12:34:08,12:34:44,43922,43976,19515.0,7,19520.0,53,19515.0,19520.0,19515.0,19520.0,25,-5,19515,5,19520,52
2017-01-05 12:35:00,12:35:00,12:35:57,43986,44034,19515.0,5,19520.0,53,19515.0,19515.0,19515.0,19515.0,26,-15,19515,2,19520,51
2017-01-05 12:36:00,12:36:04,12:36:22,44041,44057,19515.0,7,19520.0,54,19520.0,19520.0,19515.0,19515.0,9,-7,19510,42,19515,25
2017-01-05 12:37:00,12:37:01,12:37:09,44083,44125,19510.0,39,19515.0,45,19510.0,19510.0,19510.0,19510.0,37,1,19505,49,19515,60
2017-01-05 12:38:00,12:38:00,12:38:59,44157,44228,19505.0,52,19510.0,35,19505.0,19510.0,19505.0,19510.0,42,24,19510,21,19515,46
2017-01-05 12:39:00,12:39:21,12:39:24,44248,44275,19510.0,63,19515.0,39,19515.0,19515.0,19515.0,19515.0,39,29,19510,70,19515,14
2017-01-05 12:40:00,12:40:24,12:40:39,44314,44321,19510.0,72,19515.0,42,19510.0,19515.0,19510.0,19515.0,4,2,19510,74,19515,34
2017-01-05 12:41:00,12:41:00,12:41:57,44336,44398,19510.0,63,19515.0,45,19510.0,19515.0,19510.0,19510.0,24,-18,19510,59,19515,43
2017-01-05 12:42:00,12:42:43,12:42:47,44414,44455,19510.0,80,19515.0,41,19515.0,19515.0,19515.0,19515.0,56,12,19515,5,19520,56
2017-01-05 12:43:00,12:43:32,12:43:57,44490,44524,19515.0,13,19520.0,59,19515.0,19515.0,19515.0,19515.0,20,-12,19515,4,19520,62
2017-01-05 12:44:00,12:44:00,12:44:00,44528,44529,19515.0,5,19520.0,61,19515.0,19515.0,19515.0,19515.0,2,-2,19515,3,19520,62
2017-01-05 12:45:00,12:45:11,12:45:30,44574,44592,19515.0,22,19520.0,70,19520.0,19520.0,19515.0,19520.0,5,3,19515,27,19520,68
2017-01-05 12:46:00,12:46:12,12:46:46,44614,44645,19515.0,18,19520.0,78,19515.0,19515.0,19510.0,19510.0,19,-19,19510,76,19515,64
2017-01-05 12:47:00,12:47:00,12:47:53,44655,44711,19510.0,75,19515.0,68,19510.0,19515.0,19510.0,19510.0,12,-6,19510,68,19515,74
2017-01-05 12:48:00,12:48:01,12:48:45,44714,44755,19510.0,68,19515.0,74,19510.0,19515.0,19510.0,19510.0,7,-1,19510,61,19515,68
2017-01-05 12:49:00,12:49:03,12:49:45,44766,44799,19510.0,66,19515.0,68,19510.0,19515.0,19510.0,19510.0,9,-3,19510,67,19515,60
2017-01-05 12:50:00,12:50:00,12:50:58,44806,44907,19510.0,68,19515.0,62,19510.0,19515.0,19505.0,19505.0,85,-59,19505,34,19510,87
2017-01-05 12:51:00,12:51:05,12:51:59,44913,45297,19505.0,32,19510.0,87,19505.0,19505.0,19480.0,19480.0,489,-334,19480,8,19485,46
2017-01-05 12:52:00,12:52:00,12:52:57,45300,45476,19480.0,8,19485.0,46,19480.0,19480.0,19480.0,19480.0,137,51,19480,24,19485,63
2017-01-05 12:53:00,12:53:00,12:53:42,45484,45553,19480.0,17,19485.0,57,19480.0,19485.0,19480.0,19485.0,44,28,19485,45,19490,58
2017-01-05 12:54:00,12:54:06,12:54:59,45585,45751,19485.0,43,19490.0,43,19490.0,19495.0,19485.0,19490.0,162,44,19490,46,19495,11
2017-01-05 12:55:00,12:55:19,12:55:56,45779,45905,19490.0,39,19495.0,51,19490.0,19495.0,19490.0,19490.0,157,-59,19490,20,19495,46
2017-01-05 12:56:00,12:56:00,12:56:54,45913,46044,19490.0,47,19495.0,34,19490.0,19490.0,19490.0,19490.0,117,-65,19485,48,19490,21
2017-01-05 12:57:00,12:57:22,12:57:38,46070,46118,19485.0,49,19490.0,35,19490.0,19490.0,19485.0,19485.0,81,-63,19485,1,19490,78
2017-01-05 12:58:00,12:58:03,12:58:35,46166,46235,19480.0,49,19485.0,37,19480.0,19480.0,19480.0,19480.0,56,16,19475,54,19480,4
2017-01-05 12:59:00,12:59:00,12:59:34,46264,46299,19475.0,52,19480.0,28,19475.0,19480.0,19475.0,19480.0,20,16,19475,56,19480,19
2017-01-05 13:00:00,13:00:00,13:00:48,46320,46403,19475.0,63,19480.0,23,19480.0,19480.0,19475.0,19480.0,36,28,19475,82,19480,4
2017-01-05 13:01:00,13:01:00,13:01:51,46414,46670,19475.0,82,19480.0,11,19480.0,19490.0,19480.0,19485.0,311,135,19485,46,19490,39
2017-01-05 13:02:00,13:02:00,13:02:53,46681,46748,19485.0,40,19490.0,46,19485.0,19490.0,19485.0,19485.0,35,-13,19485,38,19490,78
2017-01-05 13:03:00,13:03:09,13:03:51,46758,46842,19485.0,39,19490.0,87,19485.0,19485.0,19480.0,19485.0,99,-75,19485,22,19490,105
2017-01-05 13:04:00,13:04:00,13:04:58,46851,46993,19485.0,32,19490.0,107,19490.0,19490.0,19480.0,19480.0,152,-64,19480,41,19485,62
2017-01-05 13:05:00,13:05:00,13:05:44,46997,47067,19480.0,55,19485.0,62,19480.0,19490.0,19480.0,19490.0,53,33,19485,36,19490,83
2017-01-05 13:06:00,13:06:27,13:06:45,47107,47166,19485.0,38,19490.0,113,19485.0,19485.0,19485.0,19485.0,55,-16,19480,63,19485,25
2017-01-05 13:07:00,13:07:01,13:07:58,47175,47319,19480.0,64,19485.0,35,19485.0,19485.0,19480.0,19485.0,157,9,19480,55,19485,16
2017-01-05 13:08:00,13:08:00,13:08:59,47323,47396,19480.0,59,19485.0,16,19480.0,19485.0,19480.0,19485.0,16,-8,19480,54,19485,43
2017-01-05 13:09:00,13:09:01,13:09:55,47401,47596,19480.0,55,19485.0,49,19480.0,19485.0,19475.0,19475.0,215,-17,19475,6,19480,62
2017-01-05 13:10:00,13:10:10,13:10:54,47607,47698,19475.0,15,19480.0,64,19475.0,19475.0,19475.0,19475.0,74,-60,19470,56,19475,27
2017-01-05 13:11:00,13:11:00,13:11:59,47708,48171,19470.0,52,19475.0,36,19470.0,19470.0,19455.0,19455.0,552,-98,19455,50,19460,25
2017-01-05 13:12:00,13:12:01,13:12:59,48175,48371,19455.0,50,19460.0,26,19455.0,19470.0,19455.0,19470.0,210,122,19465,54,19470,36
2017-01-05 13:13:00,13:13:03,13:13:52,48379,48611,19465.0,59,19470.0,35,19470.0,19480.0,19465.0,19475.0,224,54,19470,58,19475,11
2017-01-05 13:14:00,13:14:00,13:14:52,48625,48738,19470.0,57,19475.0,13,19470.0,19475.0,19460.0,19460.0,61,-59,19460,50,19465,29
2017-01-05 13:15:00,13:15:00,13:15:58,48752,48899,19460.0,50,19465.0,29,19460.0,19465.0,19460.0,19460.0,96,-85,19460,38,19465,98
2017-01-05 13:16:00,13:16:03,13:16:52,48906,49046,19460.0,43,19465.0,90,19460.0,19460.0,19460.0,19460.0,136,-60,19460,13,19465,56
2017-01-05 13:17:00,13:17:00,13:17:54,49054,49115,19460.0,36,19465.0,57,19460.0,19460.0,19460.0,19460.0,9,-9,19460,43,19465,45
2017-01-05 13:18:00,13:18:02,13:18:59,49127,49318,19460.0,43,19465.0,49,19460.0,19460.0,19455.0,19460.0,161,-61,19455,44,19460,34
2017-01-05 13:19:00,13:19:05,13:19:56,49328,49440,19455.0,44,19460.0,35,19455.0,19460.0,19455.0,19455.0,37,-7,19455,45,19460,48
2017-01-05 13:20:00,13:20:00,13:20:51,49450,49516,19455.0,24,19460.0,100,19455.0,19460.0,19455.0,19455.0,24,-22,19455,37,19460,120
2017-01-05 13:21:00,13:21:09,13:21:57,49534,49726,19455.0,54,19460.0,121,19460.0,19460.0,19455.0,19460.0,158,86,19455,54,19460,8
2017-01-05 13:22:00,13:22:10,13:22:58,49751,49876,19455.0,47,19460.0,35,19460.0,19465.0,19455.0,19455.0,83,-27,19455,48,19460,23
2017-01-05 13:23:00,13:23:00,13:23:49,49880,49964,19455.0,49,19460.0,23,19455.0,19460.0,19455.0,19460.0,28,20,19460,43,19465,41
2017-01-05 13:24:00,13:24:14,13:24:59,49992,50095,19460.0,64,19465.0,39,19465.0,19465.0,19460.0,19460.0,24,20,19460,66,19465,60
2017-01-05 13:25:00,13:25:03,13:25:51,50099,50311,19460.0,62,19465.0,60,19460.0,19465.0,19455.0,19465.0,207,-21,19465,7,19470,60
2017-01-05 13:26:00,13:26:00,13:26:59,50330,50531,19465.0,18,19470.0,59,19465.0,19475.0,19465.0,19475.0,188,82,19470,58,19475,10
2017-01-05 13:27:00,13:27:00,13:27:57,50534,50705,19470.0,58,19475.0,10,19475.0,19475.0,19470.0,19475.0,122,67,19470,55,19475,35
2017-01-05 13:28:00,13:28:01,13:28:41,50713,50773,19470.0,54,19475.0,34,19470.0,19475.0,19470.0,19470.0,16,-6,19470,52,19475,34
2017-01-05 13:29:00,13:29:00,13:29:39,50814,50906,19470.0,45,19475.0,42,19470.0,19475.0,19470.0,19470.0,26,-16,19465,44,19470,27
2017-01-05 13:30:00,13:30:00,13:30:31,50934,51045,19465.0,37,19470.0,52,19470.0,19470.0,19470.0,19470.0,103,87,19465,39,19470,39
2017-01-05 13:31:00,13:31:00,13:31:49,51077,51251,19465.0,37,19470.0,48,19465.0,19465.0,19460.0,19465.0,146,-108,19460,49,19465,6
2017-01-05 13:32:00,13:32:00,13:32:52,51272,51467,19460.0,52,19465.0,23,19460.0,19470.0,19460.0,19465.0,150,-14,19465,14,19470,41
2017-01-05 13:33:00,13:33:04,13:33:55,51485,51624,19465.0,22,19470.0,41,19470.0,19475.0,19470.0,19475.0,99,91,19475,24,19480,43
2017-01-05 13:34:00,13:34:09,13:34:33,51636,51690,19475.0,20,19480.0,45,19475.0,19475.0,19470.0,19475.0,25,-5,19470,46,19475,21
2017-01-05 13:35:00,13:35:00,13:35:45,51716,51787,19470.0,44,19475.0,29,19470.0,19480.0,19470.0,19480.0,36,14,19475,31,19480,47
2017-01-05 13:36:00,13:36:32,13:36:59,51816,51892,19475.0,37,19480.0,58,19475.0,19485.0,19475.0,19485.0,71,67,19480,54,19485,26
2017-01-05 13:37:00,13:37:11,13:37:58,51909,51996,19480.0,62,19485.0,31,19485.0,19490.0,19480.0,19485.0,85,25,19480,71,19485,10
2017-01-05 13:38:00,13:38:00,13:38:56,52000,52146,19480.0,72,19485.0,10,19480.0,19485.0,19480.0,19485.0,132,-63,19485,15,19490,55
2017-01-05 13:39:00,13:39:08,13:39:55,52175,52285,19485.0,21,19490.0,57,19485.0,19490.0,19485.0,19485.0,95,69,19485,27,19490,59
2017-01-05 13:40:00,13:40:16,13:40:47,52303,52341,19485.0,57,19490.0,38,19490.0,19490.0,19485.0,19490.0,12,8,19485,45,19490,52
2017-01-05 13:41:00,13:41:00,13:41:58,52357,52828,19485.0,48,19490.0,53,19485.0,19505.0,19485.0,19505.0,691,239,19500,101,19510,57
2017-01-05 13:42:00,13:42:01,13:42:38,52837,52917,19500.0,94,19505.0,24,19505.0,19505.0,19500.0,19500.0,63,25,19500,60,19505,21
2017-01-05 13:43:00,13:43:12,13:43:52,52937,53141,19500.0,65,19505.0,38,19505.0,19505.0,19490.0,19495.0,299,-76,19490,43,19495,30
2017-01-05 13:44:00,13:44:00,13:44:55,53156,53326,19490.0,44,19495.0,34,19490.0,19490.0,19480.0,19480.0,150,-86,19480,50,19485,50
2017-01-05 13:45:00,13:45:03,13:45:57,53342,53512,19480.0,66,19485.0,53,19485.0,19500.0,19480.0,19500.0,196,180,19500,43,19505,44
2017-01-05 13:46:00,13:46:01,13:46:58,53523,53870,19500.0,51,19505.0,29,19505.0,19515.0,19505.0,19510.0,357,2,19505,71,19510,3
2017-01-05 13:47:00,13:47:00,13:47:59,53875,54139,19505.0,72,19510.0,5,19505.0,19515.0,19505.0,19515.0,378,194,19515,5,19520,87
2017-01-05 13:48:00,13:48:00,13:48:59,54143,54366,19515.0,6,19520.0,87,19515.0,19520.0,19510.0,19510.0,299,-215,19505,72,19510,4
2017-01-05 13:49:00,13:49:15,13:49:41,54398,54467,19505.0,70,19510.0,38,19505.0,19505.0,19500.0,19500.0,36,-26,19500,48,19505,100
2017-01-05 13:50:00,13:50:00,13:50:49,54487,54775,19500.0,59,19505.0,93,19500.0,19515.0,19500.0,19510.0,307,125,19505,51,19510,36
2017-01-05 13:51:00,13:51:15,13:51:56,54801,54865,19505.0,44,19510.0,60,19505.0,19510.0,19505.0,19510.0,37,-23,19505,120,19510,62
2017-01-05 13:52:00,13:52:02,13:52:58,54877,55034,19505.0,117,19510.0,62,19505.0,19510.0,19500.0,19505.0,228,-158,19500,58,19505,38
2017-01-05 13:53:00,13:53:00,13:53:45,55040,55193,19500.0,59,19505.0,33,19500.0,19510.0,19500.0,19510.0,100,12,19505,26,19510,60
2017-01-05 13:54:00,13:54:00,13:54:58,55207,55415,19505.0,31,19510.0,61,19510.0,19510.0,19500.0,19500.0,136,-14,19500,59,19505,22
2017-01-05 13:55:00,13:55:03,13:55:55,55429,55900,19500.0,59,19505.0,24,19500.0,19520.0,19500.0,19515.0,680,320,19515,24,19520,63
2017-01-05 13:56:00,13:56:00,13:56:59,55915,56177,19515.0,19,19520.0,70,19515.0,19525.0,19510.0,19520.0,280,-64,19515,36,19520,69
2017-01-05 13:57:00,13:57:05,13:57:56,56193,56360,19515.0,39,19520.0,78,19515.0,19515.0,19510.0,19510.0,151,-18,19510,103,19515,38
2017-01-05 13:58:00,13:58:03,13:58:59,56369,56588,19510.0,104,19515.0,44,19510.0,19520.0,19510.0,19510.0,223,21,19510,66,19515,55
2017-01-05 13:59:00,13:59:00,13:59:59,56591,57036,19510.0,66,19515.0,55,19510.0,19520.0,19505.0,19510.0,643,-71,19510,30,19515,63
2017-01-05 14:00:00,14:00:00,14:00:56,57039,57701,19510.0,30,19515.0,63,19515.0,19525.0,19505.0,19510.0,1181,125,19510,103,19515,73
2017-01-05 14:01:00,14:01:00,14:01:56,57711,57963,19510.0,94,19515.0,85,19515.0,19525.0,19515.0,19525.0,378,271,19520,67,19525,93
2017-01-05 14:02:00,14:02:00,14:02:55,57967,58177,19520.0,93,19525.0,93,19525.0,19530.0,19520.0,19520.0,347,-21,19515,59,19520,36
2017-01-05 14:03:00,14:03:00,14:03:58,58188,58427,19515.0,62,19520.0,108,19515.0,19515.0,19500.0,19505.0,350,-26,19505,64,19510,149
2017-01-05 14:04:00,14:04:00,14:04:58,58432,58579,19505.0,69,19510.0,147,19510.0,19510.0,19505.0,19510.0,207,31,19505,146,19510,92
2017-01-05 14:05:00,14:05:02,14:05:56,58588,58825,19505.0,146,19510.0,109,19510.0,19510.0,19495.0,19495.0,362,-334,19490,110,19495,25
2017-01-05 14:06:00,14:06:02,14:06:45,58841,58981,19490.0,80,19495.0,51,19490.0,19500.0,19490.0,19495.0,157,21,19495,102,19500,126
2017-01-05 14:07:00,14:07:05,14:07:57,59002,59106,19495.0,112,19500.0,103,19495.0,19500.0,19495.0,19495.0,100,-82,19495,36,19500,103
2017-01-05 14:08:00,14:08:00,14:08:43,59113,59316,19495.0,48,19500.0,103,19495.0,19510.0,19495.0,19500.0,510,324,19500,89,19505,71
2017-01-05 14:09:00,14:09:00,14:09:59,59325,59542,19500.0,88,19505.0,71,19505.0,19510.0,19505.0,19510.0,376,112,19510,2,19515,80
