,ST,ET,sidx,eidx,bB,bBS,bA,bAS,O,H,L,C,V,OF,eB,eBS,eA,eAS
2017-01-31 08:00:00,08:00:00,08:00:51,3708,4024,19115.0,52,19120.0,49,19115.0,19125.0,19110.0,19125.0,382,22,19125,14,19130,64
2017-01-31 08:01:00,08:01:02,08:01:57,4048,4188,19125.0,79,19130.0,48,19130.0,19130.0,19120.0,19120.0,144,-84,19120,32,19125,114
2017-01-31 08:02:00,08:02:00,08:02:59,4193,4390,19120.0,34,19125.0,114,19125.0,19125.0,19115.0,19125.0,247,63,19120,46,19125,17
2017-01-31 08:03:00,08:03:00,08:03:58,4393,4575,19120.0,46,19125.0,17,19125.0,19125.0,19120.0,19125.0,212,10,19125,16,19130,52
2017-01-31 08:04:00,08:04:03,08:04:59,4590,4841,19125.0,22,19130.0,62,19125.0,19125.0,19110.0,19110.0,326,-88,19105,54,19110,13
2017-01-31 08:05:00,08:05:01,08:05:51,4848,5278,19105.0,53,19110.0,25,19110.0,19110.0,19095.0,19100.0,551,-120,19095,48,19100,18
2017-01-31 08:06:00,08:06:01,08:06:58,5296,5736,19095.0,50,19100.0,30,19095.0,19105.0,19085.0,19090.0,585,-347,19085,54,19090,61
2017-01-31 08:07:00,08:07:00,08:07:59,5739,6070,19085.0,47,19090.0,59,19090.0,19095.0,19085.0,19090.0,468,138,19085,65,19090,2
2017-01-31 08:08:00,08:08:03,08:08:50,6078,6265,19085.0,65,19090.0,9,19090.0,19100.0,19090.0,19100.0,268,246,19095,49,19100,21
2017-01-31 08:09:00,08:09:02,08:09:59,6281,6453,19095.0,51,19100.0,32,19095.0,19100.0,19090.0,19100.0,174,12,19100,74,19105,49
2017-01-31 08:10:00,08:10:04,08:10:33,6461,6628,19100.0,77,19105.0,56,19100.0,19115.0,19100.0,19110.0,198,92,19105,30,19110,26
2017-01-31 08:11:00,08:11:16,08:11:52,6672,6851,19105.0,23,19110.0,40,19110.0,19115.0,19110.0,19115.0,299,161,19115,24,19120,38
2017-01-31 08:12:00,08:12:03,08:12:55,6863,7086,19115.0,47,19120.0,38,19115.0,19120.0,19110.0,19120.0,250,-24,19120,16,19125,37
2017-01-31 08:13:00,08:13:02,08:13:59,7108,7464,19120.0,33,19125.0,21,19125.0,19145.0,19120.0,19140.0,352,163,19140,23,19145,37
2017-01-31 08:14:00,08:14:00,08:14:55,7465,7731,19140.0,24,19145.0,36,19140.0,19145.0,19140.0,19145.0,236,42,19140,29,19145,24
2017-01-31 08:15:00,08:15:09,08:15:52,7765,8037,19140.0,29,19145.0,39,19140.0,19140.0,19130.0,19135.0,326,-65,19130,51,19140,38
2017-01-31 08:16:00,08:16:00,08:16:59,8050,8438,19135.0,10,19140.0,40,19135.0,19150.0,19130.0,19150.0,462,261,19150,7,19155,60
2017-01-31 08:17:00,08:17:00,08:17:59,8439,8815,19145.0,36,19150.0,2,19150.0,19155.0,19140.0,19140.0,441,-123,19140,22,19145,27
2017-01-31 08:18:00,08:18:02,08:18:59,8824,9604,19140.0,28,19145.0,29,19140.0,19150.0,19110.0,19120.0,1195,-191,19120,5,19125,57
2017-01-31 08:19:00,08:19:00,08:19:59,9607,9827,19120.0,5,19125.0,57,19120.0,19125.0,19115.0,19120.0,232,93,19120,20,19125,31
2017-01-31 08:20:00,08:20:02,08:20:59,9834,10171,19120.0,16,19125.0,33,19120.0,19135.0,19120.0,19130.0,355,83,19125,24,19130,11
2017-01-31 08:21:00,08:21:06,08:21:49,10184,10295,19125.0,21,19130.0,22,19125.0,19125.0,19125.0,19125.0,63,-32,19120,31,19130,24
2017-01-31 08:22:00,08:22:01,08:22:44,10310,10521,19120.0,24,19125.0,21,19120.0,19130.0,19120.0,19125.0,182,-52,19120,33,19130,22
2017-01-31 08:23:00,08:23:10,08:23:58,10545,10671,19125.0,19,19130.0,19,19130.0,19130.0,19130.0,19130.0,85,29,19125,19,19130,1
2017-01-31 08:24:00,08:24:00,08:24:59,10676,10852,19125.0,19,19130.0,6,19130.0,19135.0,19125.0,19135.0,122,46,19130,23,19135,2
2017-01-31 08:25:00,08:25:00,08:25:47,10853,11059,19130.0,16,19135.0,15,19135.0,19135.0,19120.0,19130.0,187,-31,19125,20,19130,20
2017-01-31 08:26:00,08:26:06,08:26:59,11073,11341,19125.0,17,19130.0,23,19125.0,19130.0,19120.0,19125.0,253,79,19125,9,19130,23
2017-01-31 08:27:00,08:27:00,08:27:59,11346,11555,19125.0,14,19130.0,14,19130.0,19130.0,19115.0,19115.0,145,-13,19115,17,19120,19
2017-01-31 08:28:00,08:28:09,08:28:52,11564,11606,19115.0,23,19120.0,12,19120.0,19120.0,19120.0,19120.0,24,0,19120,7,19125,22
2017-01-31 08:29:00,08:29:05,08:29:55,11626,11737,19120.0,16,19125.0,23,19120.0,19130.0,19120.0,19130.0,90,2,19130,8,19135,30
2017-01-31 08:30:00,08:30:21,08:30:42,11760,11817,19130.0,21,19135.0,33,19135.0,19135.0,19135.0,19135.0,52,24,19135,9,19140,23
2017-01-31 08:31:00,08:31:09,08:31:52,11837,11984,19135.0,8,19140.0,27,19135.0,19135.0,19130.0,19135.0,126,-74,19135,12,19140,36
2017-01-31 08:32:00,08:32:09,08:32:31,11996,12032,19135.0,16,19140.0,26,19135.0,19135.0,19135.0,19135.0,33,9,19135,7,19140,31
2017-01-31 08:33:00,08:33:31,08:33:41,12089,12141,19135.0,4,19140.0,35,19135.0,19135.0,19130.0,19130.0,42,-42,19130,22,19135,19
2017-01-31 08:34:00,08:34:02,08:34:59,12175,12304,19130.0,37,19135.0,10,19135.0,19145.0,19135.0,19145.0,99,60,19140,24,19145,24
2017-01-31 08:35:00,08:35:01,08:35:59,12308,12541,19140.0,30,19145.0,24,19145.0,19145.0,19135.0,19135.0,264,-104,19135,11,19140,39
2017-01-31 08:36:00,08:36:12,08:36:54,12559,12758,19135.0,29,19140.0,33,19140.0,19140.0,19135.0,19140.0,240,110,19135,41,19140,14
2017-01-31 08:37:00,08:37:01,08:37:53,12769,12959,19135.0,29,19140.0,19,19135.0,19135.0,19125.0,19130.0,178,-94,19130,15,19135,36
2017-01-31 08:38:00,08:38:00,08:38:34,12969,13024,19130.0,19,19135.0,41,19135.0,19135.0,19130.0,19130.0,43,-29,19130,17,19135,27
2017-01-31 08:39:00,08:39:18,08:39:27,13062,13081,19130.0,17,19135.0,36,19130.0,19130.0,19130.0,19130.0,21,-11,19130,4,19135,39
2017-01-31 08:40:00,08:40:02,08:40:52,13104,13216,19130.0,20,19135.0,43,19130.0,19135.0,19130.0,19130.0,119,-1,19130,15,19135,47
2017-01-31 08:41:00,08:41:39,08:41:49,13237,13262,19130.0,21,19135.0,50,19130.0,19130.0,19120.0,19125.0,27,-25,19120,31,19125,13
2017-01-31 08:42:00,08:42:07,08:42:45,13281,13455,19120.0,40,19125.0,39,19120.0,19125.0,19115.0,19120.0,193,-38,19115,58,19125,61
2017-01-31 08:43:00,08:43:00,08:43:51,13475,13625,19120.0,32,19125.0,51,19125.0,19135.0,19125.0,19135.0,133,123,19130,41,19140,34
2017-01-31 08:44:00,08:44:22,08:44:57,13668,13736,19130.0,35,19135.0,11,19135.0,19135.0,19135.0,19135.0,33,5,19135,4,19140,31
2017-01-31 08:45:00,08:45:01,08:45:24,13745,13816,19135.0,12,19140.0,31,19135.0,19135.0,19130.0,19130.0,34,-11,19130,54,19135,48
2017-01-31 08:46:00,08:46:43,08:46:43,13920,13920,19130.0,55,19135.0,35,19135.0,19135.0,19135.0,19135.0,1,1,19130,56,19135,34
2017-01-31 08:47:00,08:47:00,08:47:53,13939,14165,19130.0,57,19135.0,32,19135.0,19135.0,19125.0,19135.0,304,-148,19130,36,19135,11
2017-01-31 08:48:00,08:48:06,08:48:58,14183,14299,19130.0,25,19135.0,42,19135.0,19140.0,19135.0,19140.0,118,40,19140,32,19145,28
2017-01-31 08:49:00,08:49:01,08:49:55,14307,14548,19140.0,31,19145.0,42,19140.0,19150.0,19130.0,19150.0,286,44,19150,8,19155,34
2017-01-31 08:50:00,08:50:04,08:50:32,14566,14797,19150.0,55,19155.0,24,19155.0,19165.0,19150.0,19155.0,254,86,19155,8,19160,44
2017-01-31 08:51:00,08:51:01,08:51:59,14830,15108,19155.0,27,19160.0,38,19160.0,19165.0,19160.0,19160.0,257,-166,19155,52,19160,7
2017-01-31 08:52:00,08:52:03,08:52:36,15116,15258,19155.0,47,19160.0,39,19160.0,19160.0,19160.0,19160.0,246,84,19160,7,19165,87
2017-01-31 08:53:00,08:53:17,08:53:59,15316,15567,19160.0,33,19165.0,91,19165.0,19175.0,19165.0,19170.0,438,4,19170,15,19175,37
2017-01-31 08:54:00,08:54:00,08:54:46,15572,15793,19170.0,22,19175.0,41,19170.0,19175.0,19165.0,19170.0,204,0,19170,22,19175,31
2017-01-31 08:55:00,08:55:02,08:55:53,15836,16262,19170.0,27,19175.0,33,19170.0,19170.0,19150.0,19150.0,570,-306,19150,50,19155,15
2017-01-31 08:56:00,08:56:00,08:56:55,16273,16548,19150.0,41,19155.0,27,19155.0,19165.0,19150.0,19160.0,336,-74,19155,42,19160,12
2017-01-31 08:57:00,08:57:02,08:57:38,16561,16635,19155.0,24,19160.0,39,19155.0,19160.0,19155.0,19155.0,65,-13,19150,44,19155,4
2017-01-31 08:58:00,08:58:05,08:58:43,16670,16798,19150.0,44,19155.0,10,19155.0,19155.0,19150.0,19150.0,104,-15,19145,70,19150,15
2017-01-31 08:59:00,08:59:26,08:59:59,16829,16947,19145.0,60,19150.0,39,19145.0,19155.0,19145.0,19155.0,146,2,19155,16,19160,26
2017-01-31 09:00:00,09:00:02,09:00:59,16957,17217,19155.0,23,19160.0,15,19160.0,19160.0,19145.0,19145.0,238,-80,19140,42,19145,17
2017-01-31 09:01:00,09:01:03,09:01:57,17221,17624,19140.0,42,19145.0,18,19145.0,19170.0,19140.0,19165.0,583,451,19165,16,19170,30
2017-01-31 09:02:00,09:02:00,09:02:59,17633,17957,19165.0,21,19170.0,36,19165.0,19180.0,19165.0,19175.0,326,133,19170,57,19175,21
2017-01-31 09:03:00,09:03:01,09:03:55,17961,18210,19170.0,57,19175.0,11,19175.0,19180.0,19170.0,19180.0,255,71,19175,91,19180,22
2017-01-31 09:04:00,09:04:00,09:04:59,18221,18378,19175.0,18,19180.0,28,19180.0,19180.0,19175.0,19175.0,143,-11,19175,14,19180,41
2017-01-31 09:05:00,09:05:00,09:05:58,18380,18583,19175.0,14,19180.0,42,19180.0,19190.0,19175.0,19180.0,193,-17,19175,12,19180,33
2017-01-31 09:06:00,09:06:02,09:06:59,18589,18668,19175.0,13,19180.0,37,19175.0,19175.0,19175.0,19175.0,79,-57,19170,55,19175,4
2017-01-31 09:07:00,09:07:00,09:07:51,18671,18821,19170.0,55,19175.0,4,19175.0,19175.0,19170.0,19175.0,150,30,19170,28,19175,14
2017-01-31 09:08:00,09:08:39,09:08:39,18859,18873,19170.0,45,19175.0,17,19175.0,19175.0,19175.0,19175.0,23,23,19175,7,19180,34
2017-01-31 09:09:00,09:09:00,09:09:36,18899,18983,19175.0,19,19180.0,27,19175.0,19180.0,19175.0,19180.0,58,38,19175,22,19180,8
2017-01-31 09:10:00,09:10:00,09:10:55,19009,19202,19175.0,16,19180.0,36,19175.0,19180.0,19170.0,19180.0,180,-78,19175,52,19180,26
2017-01-31 09:11:00,09:11:03,09:11:53,19210,19296,19175.0,63,19180.0,19,19180.0,19180.0,19175.0,19180.0,87,29,19180,23,19185,26
2017-01-31 09:12:00,09:12:04,09:12:54,19313,19715,19180.0,25,19185.0,31,19185.0,19185.0,19155.0,19155.0,586,-460,19155,30,19160,57
2017-01-31 09:13:00,09:13:00,09:13:45,19723,19813,19155.0,31,19160.0,62,19160.0,19165.0,19160.0,19165.0,93,53,19160,24,19165,32
2017-01-31 09:14:00,09:14:00,09:14:51,19827,19999,19160.0,17,19165.0,38,19165.0,19170.0,19160.0,19160.0,208,52,19160,5,19165,33
2017-01-31 09:15:00,09:15:56,09:15:56,20025,20025,19160.0,25,19165.0,37,19165.0,19165.0,19165.0,19165.0,1,1,19160,24,19165,33
2017-01-31 09:16:00,09:16:01,09:16:49,20027,20151,19160.0,24,19165.0,37,19165.0,19170.0,19165.0,19165.0,141,53,19160,36,19165,6
2017-01-31 09:17:00,09:17:17,09:17:45,20169,20341,19160.0,31,19165.0,19,19165.0,19170.0,19165.0,19165.0,165,31,19160,25,19165,10
2017-01-31 09:18:00,09:18:00,09:18:58,20355,20485,19160.0,30,19165.0,17,19165.0,19165.0,19155.0,19155.0,113,-15,19150,31,19155,21
2017-01-31 09:19:00,09:19:24,09:19:59,20510,20722,19150.0,38,19155.0,43,19155.0,19165.0,19155.0,19160.0,376,189,19155,29,19160,42
2017-01-31 09:20:00,09:20:02,09:20:19,20728,20802,19155.0,29,19160.0,43,19160.0,19165.0,19160.0,19165.0,143,127,19160,38,19170,36
2017-01-31 09:21:00,09:21:01,09:21:39,20833,20873,19165.0,17,19170.0,40,19165.0,19165.0,19165.0,19165.0,50,-38,19160,33,19170,39
2017-01-31 09:22:00,09:22:00,09:22:57,20891,21040,19160.0,30,19165.0,28,19165.0,19165.0,19155.0,19155.0,120,-44,19150,48,19155,13
2017-01-31 09:23:00,09:23:00,09:23:27,21049,21151,19150.0,34,19155.0,54,19155.0,19155.0,19155.0,19155.0,126,0,19150,46,19160,36
2017-01-31 09:24:00,09:24:07,09:24:46,21178,21312,19155.0,35,19160.0,37,19160.0,19165.0,19160.0,19160.0,137,49,19155,37,19165,29
2017-01-31 09:25:00,09:25:00,09:25:59,21323,21457,19160.0,18,19165.0,31,19165.0,19165.0,19160.0,19165.0,117,11,19160,37,19165,3
2017-01-31 09:26:00,09:26:01,09:26:58,21461,21568,19160.0,37,19165.0,8,19165.0,19170.0,19165.0,19170.0,69,41,19165,30,19170,11
2017-01-31 09:27:00,09:27:34,09:27:52,21586,21608,19165.0,21,19170.0,25,19170.0,19170.0,19165.0,19165.0,15,-7,19160,30,19165,20
2017-01-31 09:28:00,09:28:06,09:28:31,21622,21733,19160.0,27,19165.0,30,19160.0,19165.0,19160.0,19165.0,85,27,19165,11,19170,30
2017-01-31 09:29:00,09:29:03,09:29:23,21751,21787,19165.0,16,19170.0,32,19165.0,19165.0,19165.0,19165.0,37,-36,19160,34,19165,10
2017-01-31 09:30:00,09:30:12,09:30:37,21823,21881,19160.0,28,19165.0,31,19165.0,19170.0,19165.0,19165.0,66,36,19165,13,19170,19
2017-01-31 09:31:00,09:31:16,09:31:51,21899,21956,19165.0,18,19170.0,25,19165.0,19165.0,19165.0,19165.0,26,-12,19160,35,19165,10
2017-01-31 09:32:00,09:32:00,09:32:57,21967,22104,19160.0,28,19165.0,14,19165.0,19165.0,19160.0,19160.0,91,-17,19155,40,19160,5
2017-01-31 09:33:00,09:33:00,09:33:38,22110,22163,19155.0,45,19160.0,9,19160.0,19170.0,19160.0,19165.0,31,9,19165,17,19170,20
2017-01-31 09:34:00,09:34:10,09:34:58,22187,22383,19165.0,22,19170.0,22,19170.0,19170.0,19155.0,19170.0,174,-47,19165,18,19170,19
2017-01-31 09:35:00,09:35:03,09:35:46,22391,22454,19165.0,13,19170.0,31,19165.0,19170.0,19165.0,19165.0,48,-40,19165,19,19170,25
2017-01-31 09:36:00,09:36:48,09:36:59,22475,22537,19165.0,22,19170.0,38,19170.0,19170.0,19170.0,19170.0,66,17,19170,8,19175,36
2017-01-31 09:37:00,09:37:25,09:37:40,22557,22673,19170.0,67,19175.0,32,19170.0,19170.0,19160.0,19160.0,201,-183,19155,48,19160,14
2017-01-31 09:38:00,09:38:23,09:38:59,22710,22838,19155.0,60,19160.0,35,19160.0,19165.0,19160.0,19165.0,155,125,19165,4,19170,31
2017-01-31 09:39:00,09:39:01,09:39:53,22842,22902,19165.0,5,19170.0,31,19165.0,19175.0,19165.0,19170.0,58,16,19165,27,19170,11
2017-01-31 09:40:00,09:40:06,09:40:49,22925,22999,19165.0,18,19170.0,37,19165.0,19165.0,19160.0,19160.0,74,-74,19160,10,19165,39
2017-01-31 09:41:00,09:41:00,09:41:54,23014,23109,19160.0,18,19165.0,25,19165.0,19165.0,19160.0,19160.0,68,40,19155,34,19160,28
2017-01-31 09:42:00,09:42:01,09:42:36,23118,23146,19155.0,39,19160.0,28,19160.0,19160.0,19160.0,19160.0,3,3,19155,41,19160,34
2017-01-31 09:43:00,09:43:05,09:43:29,23161,23250,19155.0,43,19160.0,34,19160.0,19160.0,19155.0,19155.0,83,-79,19155,22,19160,37
2017-01-31 09:44:00,09:44:22,09:44:58,23270,23329,19155.0,32,19160.0,34,19160.0,19160.0,19155.0,19155.0,46,-14,19150,47,19160,45
2017-01-31 09:45:00,09:45:11,09:45:58,23335,23418,19150.0,49,19160.0,44,19155.0,19160.0,19155.0,19155.0,75,49,19150,45,19155,2
2017-01-31 09:46:00,09:46:00,09:46:59,23420,23494,19150.0,42,19155.0,2,19155.0,19155.0,19145.0,19145.0,83,-68,19140,47,19150,38
2017-01-31 09:47:00,09:47:01,09:47:59,23498,23549,19140.0,47,19150.0,39,19145.0,19145.0,19140.0,19140.0,14,-9,19140,25,19145,43
2017-01-31 09:48:00,09:48:07,09:48:08,23556,23558,19140.0,28,19145.0,43,19140.0,19145.0,19140.0,19145.0,3,1,19140,24,19145,41
2017-01-31 09:49:00,09:49:00,09:49:51,23576,23604,19140.0,28,19145.0,46,19145.0,19145.0,19145.0,19145.0,8,8,19140,35,19145,40
2017-01-31 09:50:00,09:50:00,09:50:55,23613,23704,19140.0,40,19145.0,51,19145.0,19145.0,19140.0,19140.0,87,-75,19140,19,19145,51
2017-01-31 09:51:00,09:51:30,09:51:57,23728,23886,19140.0,25,19145.0,51,19140.0,19140.0,19125.0,19130.0,204,-115,19130,16,19135,94
2017-01-31 09:52:00,09:52:00,09:52:44,23892,24057,19130.0,17,19135.0,97,19130.0,19135.0,19125.0,19125.0,140,54,19125,25,19130,86
2017-01-31 09:53:00,09:53:04,09:53:25,24074,24213,19125.0,43,19130.0,94,19125.0,19135.0,19125.0,19135.0,262,187,19130,44,19135,7
2017-01-31 09:54:00,09:54:26,09:54:49,24255,24449,19130.0,45,19135.0,57,19130.0,19130.0,19115.0,19120.0,237,-195,19120,31,19125,58
2017-01-31 09:55:00,09:55:01,09:55:59,24456,24540,19120.0,39,19125.0,54,19120.0,19130.0,19120.0,19125.0,68,34,19125,21,19130,76
2017-01-31 09:56:00,09:56:15,09:56:50,24545,24635,19125.0,25,19130.0,76,19125.0,19125.0,19125.0,19125.0,106,44,19125,23,19130,88
2017-01-31 09:57:00,09:57:18,09:57:21,24653,24723,19125.0,38,19130.0,92,19130.0,19135.0,19130.0,19130.0,134,68,19130,8,19135,52
2017-01-31 09:58:00,09:58:06,09:58:34,24771,24870,19130.0,17,19135.0,48,19130.0,19130.0,19120.0,19120.0,95,-95,19120,36,19125,59
2017-01-31 09:59:00,09:59:00,09:59:38,24883,24960,19120.0,49,19125.0,69,19125.0,19125.0,19125.0,19125.0,116,90,19125,18,19130,42
2017-01-31 10:00:00,10:00:00,10:00:34,24983,25124,19125.0,30,19130.0,52,19130.0,19130.0,19130.0,19130.0,126,65,19125,46,19130,8
2017-01-31 10:01:00,10:01:07,10:01:59,25160,25219,19125.0,49,19130.0,19,19130.0,19130.0,19125.0,19125.0,45,15,19120,29,19125,16
2017-01-31 10:02:00,10:02:00,10:02:04,25222,25341,19120.0,29,19125.0,16,19125.0,19135.0,19125.0,19135.0,163,145,19135,16,19140,28
2017-01-31 10:03:00,10:03:04,10:03:55,25368,25608,19135.0,23,19140.0,39,19140.0,19140.0,19130.0,19130.0,246,-8,19130,25,19135,25
2017-01-31 10:04:00,10:04:00,10:04:00,0,0,0.0,0,0.0,0,19130.0,19130.0,19130.0,19130.0,0,0,0,0,0,0
2017-01-31 10:05:00,10:05:02,10:05:57,25650,25806,19130.0,32,19135.0,30,19130.0,19135.0,19120.0,19125.0,212,-90,19120,26,19125,46
2017-01-31 10:06:00,10:06:22,10:06:28,25819,25853,19120.0,34,19125.0,53,19125.0,19125.0,19125.0,19125.0,66,60,19125,15,19130,39
2017-01-31 10:07:00,10:07:11,10:07:51,25884,25988,19125.0,37,19130.0,18,19130.0,19130.0,19130.0,19130.0,98,28,19125,38,19135,30
2017-01-31 10:08:00,10:08:00,10:08:51,25994,26123,19130.0,7,19135.0,34,19135.0,19135.0,19130.0,19135.0,125,105,19135,12,19140,39
2017-01-31 10:09:00,10:09:03,10:09:46,26136,26189,19135.0,17,19140.0,34,19135.0,19140.0,19135.0,19135.0,45,-43,19130,34,19140,41
2017-01-31 10:10:00,10:10:02,10:10:42,26201,26285,19130.0,34,19140.0,41,19135.0,19140.0,19135.0,19140.0,100,57,19135,25,19140,8
2017-01-31 10:11:00,10:11:00,10:11:00,0,0,0.0,0,0.0,0,19140.0,19140.0,19140.0,19140.0,0,0,0,0,0,0
2017-01-31 10:12:00,10:12:04,10:12:59,26320,26391,19135.0,24,19140.0,36,19140.0,19140.0,19130.0,19130.0,46,-4,19130,32,19140,34
2017-01-31 10:13:00,10:13:00,10:13:50,26393,26431,19130.0,32,19135.0,24,19135.0,19135.0,19130.0,19130.0,21,-5,19125,33,19130,24
2017-01-31 10:14:00,10:14:17,10:14:55,26445,26524,19125.0,38,19130.0,29,19130.0,19135.0,19130.0,19135.0,71,22,19130,33,19135,5
2017-01-31 10:15:00,10:15:15,10:15:52,26539,26593,19130.0,30,19135.0,22,19135.0,19135.0,19135.0,19135.0,26,-16,19135,11,19140,40
2017-01-31 10:16:00,10:16:00,10:16:59,26600,26708,19135.0,19,19140.0,40,19140.0,19140.0,19140.0,19140.0,84,10,19140,7,19145,29
2017-01-31 10:17:00,10:17:00,10:17:40,26711,26770,19140.0,7,19145.0,29,19145.0,19145.0,19140.0,19140.0,55,-36,19135,28,19140,5
2017-01-31 10:18:00,10:18:00,10:18:59,26789,26891,19135.0,8,19140.0,27,19135.0,19135.0,19130.0,19130.0,82,-65,19130,14,19135,24
2017-01-31 10:19:00,10:19:03,10:19:46,26899,27034,19130.0,30,19135.0,25,19130.0,19130.0,19125.0,19125.0,97,-1,19120,33,19130,28
2017-01-31 10:20:00,10:20:04,10:20:57,27055,27285,19120.0,33,19125.0,27,19120.0,19120.0,19115.0,19115.0,219,-203,19110,41,19115,12
2017-01-31 10:21:00,10:21:04,10:21:53,27297,27457,19110.0,35,19115.0,25,19110.0,19115.0,19110.0,19110.0,167,-87,19110,3,19115,28
2017-01-31 10:22:00,10:22:04,10:22:59,27477,27682,19110.0,33,19115.0,48,19110.0,19110.0,19100.0,19105.0,215,-27,19100,30,19110,47
2017-01-31 10:23:00,10:23:00,10:23:54,27688,27919,19100.0,29,19105.0,18,19100.0,19115.0,19100.0,19110.0,290,-46,19110,21,19115,22
2017-01-31 10:24:00,10:24:02,10:24:42,27928,27988,19110.0,16,19115.0,23,19110.0,19115.0,19110.0,19115.0,49,33,19110,22,19115,14
2017-01-31 10:25:00,10:25:00,10:25:51,28010,28200,19110.0,15,19115.0,26,19115.0,19115.0,19105.0,19110.0,156,-98,19105,17,19110,20
2017-01-31 10:26:00,10:26:00,10:26:51,28210,28294,19105.0,26,19110.0,20,19110.0,19110.0,19105.0,19105.0,47,-5,19105,14,19110,18
2017-01-31 10:27:00,10:27:12,10:27:58,28307,28530,19105.0,14,19110.0,22,19105.0,19110.0,19100.0,19110.0,244,-34,19105,22,19115,23
2017-01-31 10:28:00,10:28:03,10:28:34,28540,28618,19105.0,19,19110.0,19,19105.0,19105.0,19100.0,19105.0,56,-52,19100,30,19105,39
2017-01-31 10:29:00,10:29:03,10:29:58,28635,28697,19100.0,62,19105.0,46,19100.0,19105.0,19100.0,19105.0,44,-38,19100,33,19105,37
2017-01-31 10:30:00,10:30:02,10:30:53,28703,28918,19100.0,33,19105.0,41,19105.0,19125.0,19100.0,19125.0,201,171,19120,15,19125,4
2017-01-31 10:31:00,10:31:03,10:31:45,28931,29016,19120.0,20,19125.0,16,19120.0,19120.0,19115.0,19120.0,73,-9,19115,8,19120,14
2017-01-31 10:32:00,10:32:00,10:32:32,29022,29038,19115.0,8,19120.0,15,19120.0,19120.0,19115.0,19115.0,12,-10,19110,13,19120,14
2017-01-31 10:33:00,10:33:03,10:33:33,29048,29094,19110.0,13,19115.0,9,19115.0,19115.0,19115.0,19115.0,27,9,19115,6,19120,13
2017-01-31 10:34:00,10:34:47,10:34:53,29123,29148,19115.0,20,19120.0,15,19120.0,19120.0,19120.0,19120.0,32,-2,19115,23,19120,15
2017-01-31 10:35:00,10:35:00,10:35:58,29150,29212,19115.0,25,19120.0,15,19120.0,19120.0,19105.0,19105.0,46,-42,19105,1,19110,11
2017-01-31 10:36:00,10:36:04,10:36:57,29216,29270,19105.0,1,19110.0,12,19105.0,19105.0,19100.0,19100.0,21,-12,19095,14,19105,9
2017-01-31 10:37:00,10:37:03,10:37:43,29273,29297,19095.0,14,19105.0,9,19100.0,19105.0,19100.0,19105.0,18,13,19100,6,19105,12
2017-01-31 10:38:00,10:38:20,10:38:56,29314,29337,19100.0,7,19105.0,19,19100.0,19105.0,19100.0,19105.0,24,16,19105,4,19110,13
2017-01-31 10:39:00,10:39:02,10:39:59,29340,29381,19105.0,4,19110.0,13,19105.0,19105.0,19105.0,19105.0,37,9,19105,4,19110,12
2017-01-31 10:40:00,10:40:01,10:40:44,29385,29411,19105.0,1,19110.0,12,19105.0,19105.0,19105.0,19105.0,19,11,19100,11,19105,1
2017-01-31 10:41:00,10:41:00,10:41:00,0,0,0.0,0,0.0,0,19105.0,19105.0,19105.0,19105.0,0,0,0,0,0,0
2017-01-31 10:42:00,10:42:04,10:42:04,29432,29433,19100.0,13,19105.0,23,19105.0,19105.0,19105.0,19105.0,2,2,19100,11,19105,22
2017-01-31 10:43:00,10:43:01,10:43:44,29447,29502,19100.0,11,19105.0,23,19105.0,19110.0,19100.0,19105.0,60,10,19100,7,19105,9
2017-01-31 10:44:00,10:44:00,10:44:59,29508,29565,19100.0,5,19105.0,9,19105.0,19105.0,19090.0,19095.0,155,-107,19070,2,19075,4
2017-01-31 10:45:00,10:45:00,10:45:54,29566,29952,19095.0,35,19100.0,10,19085.0,19085.0,19010.0,19075.0,484,-318,19070,15,19075,1
2017-01-31 10:46:00,10:46:01,10:46:49,29958,30035,19075.0,8,19080.0,52,19075.0,19080.0,19075.0,19075.0,101,3,19065,5,19075,6
2017-01-31 10:47:00,10:47:05,10:47:55,30043,30156,19070.0,22,19075.0,12,19070.0,19070.0,19060.0,19060.0,83,-61,19055,60,19060,24
2017-01-31 10:48:00,10:48:11,10:48:55,30168,30336,19055.0,62,19060.0,24,19060.0,19065.0,19050.0,19055.0,346,-18,19050,20,19055,12
2017-01-31 10:49:00,10:49:01,10:49:53,30351,30552,19050.0,75,19055.0,15,19055.0,19060.0,19040.0,19050.0,310,44,19045,18,19055,17
2017-01-31 10:50:00,10:50:00,10:50:54,30556,30635,19045.0,19,19055.0,17,19045.0,19050.0,19045.0,19045.0,62,-6,19040,18,19050,21
2017-01-31 10:51:00,10:51:27,10:51:50,30665,30727,19045.0,19,19050.0,24,19050.0,19050.0,19050.0,19050.0,65,53,19050,3,19055,19
2017-01-31 10:52:00,10:52:09,10:52:59,30744,30885,19050.0,20,19055.0,32,19050.0,19055.0,19045.0,19055.0,117,35,19050,15,19060,23
2017-01-31 10:53:00,10:53:00,10:53:58,30888,31005,19050.0,15,19060.0,23,19060.0,19060.0,19050.0,19050.0,76,44,19045,12,19050,5
2017-01-31 10:54:00,10:54:06,10:54:52,31016,31078,19045.0,15,19050.0,10,19045.0,19050.0,19045.0,19050.0,43,15,19050,1,19055,22
2017-01-31 10:55:00,10:55:03,10:55:44,31086,31150,19045.0,30,19050.0,5,19050.0,19055.0,19050.0,19055.0,143,129,19050,52,19060,24
2017-01-31 10:56:00,10:56:07,10:56:52,31169,31462,19055.0,9,19060.0,24,19060.0,19085.0,19060.0,19085.0,310,161,19080,10,19085,7
2017-01-31 10:57:00,10:57:00,10:57:57,31472,31801,19080.0,10,19085.0,12,19080.0,19095.0,19080.0,19080.0,282,-42,19080,7,19085,15
2017-01-31 10:58:00,10:58:01,10:58:58,31810,32061,19080.0,11,19085.0,9,19085.0,19095.0,19070.0,19080.0,171,-8,19075,22,19080,2
2017-01-31 10:59:00,10:59:03,10:59:58,32070,32344,19075.0,18,19080.0,9,19075.0,19075.0,19055.0,19060.0,269,-141,19060,7,19065,14
2017-01-31 11:00:00,11:00:00,11:00:56,32348,32556,19060.0,7,19065.0,11,19060.0,19075.0,19060.0,19065.0,143,3,19065,8,19070,8
2017-01-31 11:01:00,11:01:02,11:01:59,32566,32809,19065.0,12,19070.0,12,19065.0,19070.0,19055.0,19055.0,228,-83,19055,3,19060,16
2017-01-31 11:02:00,11:02:00,11:02:59,32812,33323,19055.0,3,19060.0,16,19060.0,19060.0,19020.0,19025.0,511,-123,19020,13,19025,7
2017-01-31 11:03:00,11:03:00,11:03:59,33328,33724,19020.0,10,19025.0,8,19020.0,19035.0,19015.0,19025.0,336,40,19025,5,19030,20
2017-01-31 11:04:00,11:04:01,11:04:52,33731,33974,19025.0,14,19030.0,11,19025.0,19035.0,19015.0,19035.0,207,27,19035,13,19040,13
2017-01-31 11:05:00,11:05:08,11:05:59,33992,34116,19035.0,22,19040.0,10,19035.0,19035.0,19020.0,19020.0,86,-50,19020,15,19030,11
2017-01-31 11:06:00,11:06:00,11:06:57,34118,34268,19020.0,15,19025.0,12,19025.0,19030.0,19025.0,19025.0,98,38,19025,36,19030,24
2017-01-31 11:07:00,11:07:06,11:07:59,34275,34517,19025.0,38,19030.0,25,19025.0,19030.0,19000.0,19005.0,221,-191,19005,6,19015,16
2017-01-31 11:08:00,11:08:00,11:08:59,34519,34719,19005.0,6,19010.0,30,19005.0,19020.0,19005.0,19020.0,161,29,19015,24,19020,2
2017-01-31 11:09:00,11:09:15,11:09:48,34744,34832,19015.0,23,19020.0,10,19020.0,19025.0,19020.0,19025.0,48,14,19020,27,19025,17
2017-01-31 11:10:00,11:10:11,11:10:59,34860,35008,19020.0,19,19025.0,23,19025.0,19035.0,19025.0,19035.0,110,62,19030,14,19035,12
2017-01-31 11:11:00,11:11:00,11:11:52,35011,35153,19030.0,14,19035.0,12,19035.0,19035.0,19025.0,19025.0,103,-16,19025,4,19030,35
2017-01-31 11:12:00,11:12:12,11:12:45,35177,35253,19025.0,24,19030.0,28,19030.0,19035.0,19030.0,19030.0,70,-8,19025,27,19035,18
2017-01-31 11:13:00,11:13:10,11:13:58,35274,35355,19030.0,20,19035.0,18,19035.0,19035.0,19030.0,19035.0,48,-2,19030,40,19035,13
2017-01-31 11:14:00,11:14:07,11:14:56,35364,35506,19030.0,69,19035.0,20,19035.0,19035.0,19025.0,19030.0,187,19,19025,24,19030,3
2017-01-31 11:15:00,11:15:00,11:15:52,35512,35674,19025.0,24,19030.0,12,19030.0,19030.0,19015.0,19015.0,126,-56,19010,26,19015,5
2017-01-31 11:16:00,11:16:00,11:16:36,35688,35833,19010.0,26,19015.0,11,19010.0,19020.0,19010.0,19015.0,105,-3,19015,2,19020,23
2017-01-31 11:17:00,11:17:22,11:17:46,35859,35931,19015.0,38,19020.0,28,19020.0,19025.0,19020.0,19025.0,56,52,19025,7,19030,20
2017-01-31 11:18:00,11:18:03,11:18:14,35942,35955,19025.0,31,19030.0,25,19025.0,19025.0,19025.0,19025.0,35,-33,19020,23,19025,17
2017-01-31 11:19:00,11:19:04,11:19:41,35991,36062,19020.0,22,19025.0,25,19025.0,19025.0,19015.0,19015.0,78,-66,19015,4,19020,26
2017-01-31 11:20:00,11:20:00,11:20:50,36086,36151,19015.0,22,19020.0,24,19020.0,19020.0,19015.0,19020.0,49,37,19020,11,19025,19
2017-01-31 11:21:00,11:21:00,11:21:49,36165,36350,19020.0,21,19025.0,18,19025.0,19030.0,19025.0,19030.0,149,33,19030,1,19035,27
2017-01-31 11:22:00,11:22:15,11:22:46,36374,36432,19030.0,7,19035.0,27,19030.0,19030.0,19030.0,19030.0,40,0,19030,5,19035,25
2017-01-31 11:23:00,11:23:00,11:23:00,0,0,0.0,0,0.0,0,19030.0,19030.0,19030.0,19030.0,0,0,0,0,0,0
2017-01-31 11:24:00,11:24:03,11:24:59,36490,36604,19030.0,21,19035.0,24,19035.0,19035.0,19035.0,19035.0,66,60,19035,5,19040,32
2017-01-31 11:25:00,11:25:02,11:25:59,36607,36834,19035.0,5,19040.0,32,19035.0,19045.0,19030.0,19040.0,169,13,19035,11,19040,25
2017-01-31 11:26:00,11:26:03,11:26:59,36841,37111,19035.0,12,19040.0,29,19035.0,19055.0,19035.0,19055.0,239,29,19055,23,19060,20
2017-01-31 11:27:00,11:27:02,11:27:59,37114,37299,19055.0,23,19060.0,20,19055.0,19060.0,19050.0,19060.0,106,32,19060,4,19065,20
2017-01-31 11:28:00,11:28:00,11:28:53,37304,37421,19060.0,3,19065.0,26,19060.0,19065.0,19060.0,19065.0,68,-28,19060,15,19065,11
2017-01-31 11:29:00,11:29:00,11:29:56,37434,37770,19060.0,11,19065.0,21,19065.0,19075.0,19060.0,19065.0,354,-9,19065,10,19070,23
2017-01-31 11:30:00,11:30:00,11:30:59,37777,38067,19065.0,13,19070.0,18,19065.0,19075.0,19065.0,19065.0,245,-107,19065,2,19070,36
2017-01-31 11:31:00,11:31:01,11:31:54,38073,38227,19065.0,19,19070.0,36,19070.0,19070.0,19060.0,19065.0,140,52,19060,22,19065,4
2017-01-31 11:32:00,11:32:04,11:32:57,38239,38389,19065.0,3,19070.0,23,19065.0,19065.0,19055.0,19055.0,134,25,19055,19,19060,22
2017-01-31 11:33:00,11:33:01,11:33:56,38400,38472,19055.0,25,19060.0,15,19060.0,19060.0,19060.0,19060.0,32,19,19055,43,19060,6
2017-01-31 11:34:00,11:34:05,11:34:58,38484,38630,19055.0,43,19060.0,10,19060.0,19060.0,19055.0,19055.0,81,17,19055,36,19060,18
2017-01-31 11:35:00,11:35:01,11:35:57,38632,38816,19055.0,36,19060.0,20,19060.0,19060.0,19050.0,19055.0,121,-27,19055,1,19060,46
2017-01-31 11:36:00,11:36:00,11:36:38,38819,38942,19055.0,2,19060.0,44,19055.0,19055.0,19050.0,19050.0,97,-89,19050,17,19055,27
2017-01-31 11:37:00,11:37:06,11:37:59,38961,39114,19050.0,30,19055.0,23,19055.0,19055.0,19050.0,19055.0,119,32,19050,43,19055,12
2017-01-31 11:38:00,11:38:00,11:38:41,39115,39155,19050.0,49,19055.0,13,19055.0,19060.0,19055.0,19055.0,22,6,19055,36,19060,59
2017-01-31 11:39:00,11:39:05,11:39:55,39165,39393,19055.0,39,19060.0,60,19060.0,19065.0,19055.0,19055.0,265,17,19055,12,19060,36
2017-01-31 11:40:00,11:40:08,11:40:45,39410,39593,19055.0,22,19060.0,60,19055.0,19055.0,19045.0,19045.0,185,-113,19040,69,19050,65
2017-01-31 11:41:00,11:41:01,11:41:56,39599,39760,19045.0,20,19050.0,65,19050.0,19055.0,19050.0,19050.0,157,99,19045,46,19050,20
2017-01-31 11:42:00,11:42:04,11:42:56,39770,39963,19045.0,45,19050.0,25,19045.0,19050.0,19040.0,19050.0,206,-16,19045,61,19050,31
2017-01-31 11:43:00,11:43:10,11:43:57,39974,40232,19045.0,58,19050.0,36,19050.0,19050.0,19035.0,19040.0,295,-93,19035,37,19040,8
2017-01-31 11:44:00,11:44:00,11:44:56,40240,40459,19035.0,40,19040.0,28,19040.0,19045.0,19035.0,19040.0,238,152,19035,47,19045,37
2017-01-31 11:45:00,11:45:02,11:45:42,40468,40679,19040.0,17,19045.0,37,19040.0,19040.0,19025.0,19035.0,313,-21,19035,23,19040,17
2017-01-31 11:46:00,11:46:01,11:46:50,40711,40917,19035.0,14,19040.0,41,19035.0,19040.0,19030.0,19040.0,170,-25,19035,42,19040,9
2017-01-31 11:47:00,11:47:00,11:47:54,40926,41006,19035.0,42,19040.0,17,19040.0,19040.0,19040.0,19040.0,44,41,19040,6,19045,42
2017-01-31 11:48:00,11:48:13,11:48:48,41029,41101,19040.0,25,19045.0,20,19040.0,19045.0,19040.0,19045.0,49,33,19040,41,19050,44
2017-01-31 11:49:00,11:49:00,11:49:45,41119,41228,19045.0,16,19050.0,42,19045.0,19045.0,19045.0,19045.0,85,-57,19045,6,19050,32
2017-01-31 11:50:00,11:50:04,11:50:41,41240,41326,19045.0,14,19050.0,43,19045.0,19050.0,19045.0,19050.0,84,8,19050,50,19055,29
2017-01-31 11:51:00,11:51:17,11:51:37,41360,41440,19050.0,62,19055.0,22,19050.0,19050.0,19040.0,19040.0,93,-89,19040,35,19045,19
2017-01-31 11:52:00,11:52:02,11:52:28,41460,41539,19040.0,35,19045.0,15,19040.0,19040.0,19040.0,19040.0,83,-83,19040,29,19045,22
2017-01-31 11:53:00,11:53:04,11:53:59,41572,41683,19040.0,37,19045.0,26,19045.0,19045.0,19040.0,19045.0,89,78,19045,6,19050,56
2017-01-31 11:54:00,11:54:00,11:54:58,41688,41888,19045.0,25,19050.0,29,19045.0,19060.0,19045.0,19060.0,253,53,19055,43,19060,39
2017-01-31 11:55:00,11:55:00,11:55:54,41890,42003,19055.0,40,19060.0,39,19060.0,19065.0,19055.0,19060.0,91,52,19055,45,19060,15
2017-01-31 11:56:00,11:56:00,11:56:00,42008,42008,19055.0,46,19060.0,24,19060.0,19060.0,19060.0,19060.0,1,1,19055,49,19060,21
2017-01-31 11:57:00,11:57:01,11:57:54,42056,42194,19055.0,52,19060.0,8,19060.0,19065.0,19055.0,19065.0,88,40,19065,6,19070,40
2017-01-31 11:58:00,11:58:06,11:58:36,42205,42376,19065.0,20,19070.0,43,19070.0,19070.0,19065.0,19065.0,165,15,19065,5,19070,38
2017-01-31 11:59:00,11:59:00,11:59:54,42401,42520,19065.0,25,19070.0,34,19070.0,19070.0,19060.0,19065.0,90,1,19065,10,19070,43
2017-01-31 12:00:00,12:00:00,12:00:54,42527,42649,19065.0,8,19070.0,36,19070.0,19070.0,19060.0,19065.0,65,31,19060,40,19065,3
2017-01-31 12:01:00,12:01:15,12:01:41,42668,42715,19060.0,45,19065.0,26,19060.0,19060.0,19060.0,19060.0,24,-24,19060,23,19065,27
2017-01-31 12:02:00,12:02:05,12:02:59,42731,42822,19060.0,30,19065.0,30,19060.0,19065.0,19055.0,19055.0,102,-62,19055,4,19055,8
2017-01-31 12:03:00,12:03:00,12:03:48,42825,42955,19050.0,46,19055.0,10,19055.0,19060.0,19055.0,19060.0,136,82,19055,43,19060,9
2017-01-31 12:04:00,12:04:04,12:04:33,42972,43002,19055.0,34,19060.0,36,19055.0,19060.0,19055.0,19060.0,27,21,19060,38,19065,25
2017-01-31 12:05:00,12:05:00,12:05:56,43017,43116,19060.0,39,19065.0,29,19065.0,19065.0,19060.0,19065.0,114,-5,19060,48,19070,43
2017-01-31 12:06:00,12:06:28,12:06:53,43149,43238,19060.0,30,19065.0,23,19060.0,19060.0,19060.0,19060.0,83,21,19060,15,19065,28
2017-01-31 12:07:00,12:07:04,12:07:59,43250,43353,19060.0,13,19065.0,33,19060.0,19065.0,19060.0,19065.0,53,-10,19065,2,19070,40
2017-01-31 12:08:00,12:08:00,12:08:49,43355,43454,19065.0,2,19070.0,39,19065.0,19065.0,19060.0,19060.0,66,-16,19055,44,19060,5
2017-01-31 12:09:00,12:09:03,12:09:10,43468,43525,19055.0,42,19060.0,30,19055.0,19060.0,19055.0,19060.0,89,-11,19055,40,19060,7
2017-01-31 12:10:00,12:10:01,12:10:58,43562,43669,19055.0,40,19060.0,20,19060.0,19060.0,19050.0,19050.0,110,0,19050,43,19050,17
2017-01-31 12:11:00,12:11:01,12:11:59,43671,43820,19050.0,43,19055.0,40,19050.0,19055.0,19050.0,19055.0,125,11,19050,44,19055,1
2017-01-31 12:12:00,12:12:01,12:12:56,43822,43934,19050.0,44,19060.0,46,19055.0,19055.0,19050.0,19050.0,96,-7,19050,27,19055,25
2017-01-31 12:13:00,12:13:01,12:13:41,43941,44025,19050.0,28,19055.0,15,19055.0,19060.0,19055.0,19060.0,66,2,19055,44,19060,28
2017-01-31 12:14:00,12:14:00,12:14:24,44035,44058,19055.0,43,19060.0,39,19060.0,19060.0,19055.0,19055.0,44,-38,19050,42,19055,2
2017-01-31 12:15:00,12:15:23,12:15:53,44091,44212,19050.0,73,19055.0,37,19055.0,19055.0,19050.0,19050.0,157,-5,19045,53,19050,7
2017-01-31 12:16:00,12:16:17,12:16:58,44234,44339,19045.0,56,19050.0,25,19050.0,19050.0,19050.0,19050.0,86,26,19045,54,19050,14
2017-01-31 12:17:00,12:17:33,12:17:52,44360,44400,19045.0,55,19050.0,29,19045.0,19045.0,19045.0,19045.0,89,-89,19045,17,19050,36
2017-01-31 12:18:00,12:18:01,12:18:59,44409,44564,19045.0,33,19050.0,35,19045.0,19045.0,19045.0,19045.0,174,-126,19045,7,19050,26
2017-01-31 12:19:00,12:19:02,12:19:02,44570,44571,19045.0,24,19050.0,34,19045.0,19045.0,19045.0,19045.0,6,-6,19045,18,19050,26
2017-01-31 12:20:00,12:20:07,12:20:43,44598,44751,19045.0,50,19050.0,42,19050.0,19050.0,19050.0,19050.0,182,-48,19050,8,19055,47
2017-01-31 12:21:00,12:21:13,12:21:33,44781,44858,19050.0,50,19055.0,48,19050.0,19050.0,19050.0,19050.0,80,-32,19050,10,19055,41
2017-01-31 12:22:00,12:22:02,12:22:51,44890,45006,19050.0,9,19055.0,47,19050.0,19055.0,19050.0,19055.0,91,52,19050,44,19060,46
2017-01-31 12:23:00,12:23:00,12:23:06,45011,45023,19050.0,44,19055.0,3,19055.0,19055.0,19055.0,19055.0,7,7,19050,42,19060,45
2017-01-31 12:24:00,12:24:01,12:24:21,45055,45090,19050.0,35,19055.0,20,19055.0,19055.0,19055.0,19055.0,36,26,19050,39,19060,55
2017-01-31 12:25:00,12:25:05,12:25:57,45123,45405,19055.0,40,19060.0,34,19060.0,19070.0,19060.0,19070.0,269,93,19065,34,19070,27
2017-01-31 12:26:00,12:26:11,12:26:54,45419,45512,19065.0,41,19070.0,5,19070.0,19070.0,19065.0,19070.0,50,7,19065,46,19070,9
2017-01-31 12:27:00,12:27:03,12:27:56,45521,45670,19065.0,46,19070.0,13,19070.0,19075.0,19070.0,19075.0,127,31,19070,25,19075,43
2017-01-31 12:28:00,12:28:11,12:28:33,45697,45752,19070.0,49,19075.0,26,19075.0,19075.0,19070.0,19075.0,32,28,19070,42,19080,69
2017-01-31 12:29:00,12:29:21,12:29:53,45784,45839,19075.0,28,19080.0,71,19075.0,19075.0,19075.0,19075.0,30,-29,19075,2,19080,78
2017-01-31 12:30:00,12:30:00,12:30:37,45842,46024,19075.0,2,19080.0,78,19075.0,19080.0,19075.0,19080.0,171,35,19075,56,19085,46
2017-01-31 12:31:00,12:31:04,12:31:49,46043,46126,19080.0,38,19085.0,48,19080.0,19080.0,19075.0,19075.0,66,-56,19075,46,19080,30
2017-01-31 12:32:00,12:32:00,12:32:44,46132,46275,19075.0,52,19080.0,21,19080.0,19090.0,19080.0,19085.0,133,119,19080,89,19085,16
2017-01-31 12:33:00,12:33:21,12:33:51,46312,46381,19080.0,95,19085.0,20,19080.0,19080.0,19075.0,19075.0,123,-123,19075,30,19080,38
2017-01-31 12:34:00,12:34:58,12:34:58,46413,46420,19075.0,48,19080.0,21,19080.0,19080.0,19080.0,19080.0,14,14,19080,21,19085,37
2017-01-31 12:35:00,12:35:00,12:35:48,46426,46571,19080.0,18,19085.0,42,19080.0,19085.0,19075.0,19080.0,142,27,19075,57,19085,41
2017-01-31 12:36:00,12:36:13,12:36:27,46598,46652,19075.0,63,19080.0,5,19080.0,19085.0,19080.0,19085.0,56,33,19080,33,19085,35
2017-01-31 12:37:00,12:37:15,12:37:54,46679,46735,19080.0,36,19085.0,36,19080.0,19080.0,19080.0,19080.0,50,-16,19080,13,19085,33
2017-01-31 12:38:00,12:38:08,12:38:57,46752,46834,19080.0,35,19085.0,39,19080.0,19090.0,19080.0,19090.0,95,-55,19085,41,19090,17
2017-01-31 12:39:00,12:39:01,12:39:49,46845,47027,19085.0,66,19090.0,18,19085.0,19090.0,19085.0,19090.0,247,23,19090,19,19095,38
2017-01-31 12:40:00,12:40:11,12:40:41,47066,47156,19090.0,46,19095.0,26,19095.0,19100.0,19095.0,19095.0,98,-6,19095,40,19100,47
2017-01-31 12:41:00,12:41:00,12:41:59,47167,47455,19095.0,25,19100.0,53,19100.0,19115.0,19095.0,19110.0,288,35,19110,6,19115,49
2017-01-31 12:42:00,12:42:01,12:42:48,47458,47636,19110.0,6,19115.0,49,19115.0,19115.0,19105.0,19105.0,179,-87,19105,8,19110,67
2017-01-31 12:43:00,12:43:08,12:43:59,47669,47815,19105.0,44,19110.0,65,19105.0,19105.0,19100.0,19100.0,167,-139,19100,10,19105,138
2017-01-31 12:44:00,12:44:02,12:44:56,47823,48031,19100.0,16,19105.0,139,19100.0,19105.0,19090.0,19105.0,355,35,19100,51,19105,28
2017-01-31 12:45:00,12:45:11,12:45:20,48041,48063,19100.0,61,19105.0,30,19105.0,19110.0,19105.0,19110.0,46,42,19105,91,19110,24
2017-01-31 12:46:00,12:46:04,12:46:58,48088,48135,19105.0,93,19110.0,38,19110.0,19110.0,19105.0,19110.0,12,-6,19105,84,19110,64
2017-01-31 12:47:00,12:47:07,12:47:32,48141,48181,19105.0,81,19110.0,58,19110.0,19110.0,19105.0,19105.0,48,-36,19100,79,19105,20
2017-01-31 12:48:00,12:48:05,12:48:51,48200,48336,19100.0,79,19105.0,5,19105.0,19115.0,19105.0,19115.0,113,21,19110,41,19115,19
2017-01-31 12:49:00,12:49:08,12:49:59,48354,48434,19110.0,45,19115.0,27,19115.0,19115.0,19110.0,19115.0,72,-2,19110,48,19115,7
2017-01-31 12:50:00,12:50:00,12:50:36,48435,48485,19110.0,49,19115.0,16,19115.0,19115.0,19110.0,19110.0,29,-27,19110,32,19115,31
2017-01-31 12:51:00,12:51:02,12:51:46,48506,48588,19110.0,32,19115.0,50,19115.0,19115.0,19110.0,19110.0,68,-38,19105,57,19115,58
2017-01-31 12:52:00,12:52:21,12:52:47,48612,48678,19110.0,46,19115.0,58,19110.0,19110.0,19110.0,19110.0,97,-95,19110,24,19115,38
2017-01-31 12:53:00,12:53:15,12:53:54,48695,48734,19110.0,42,19115.0,39,19110.0,19115.0,19110.0,19110.0,36,-18,19110,13,19115,43
2017-01-31 12:54:00,12:54:11,12:54:46,48747,48993,19110.0,37,19115.0,34,19115.0,19145.0,19115.0,19125.0,338,288,19125,18,19130,42
2017-01-31 12:55:00,12:55:05,12:55:59,49010,49101,19125.0,52,19130.0,49,19125.0,19125.0,19120.0,19120.0,69,-55,19120,56,19125,39
2017-01-31 12:56:00,12:56:05,12:56:55,49109,49330,19120.0,44,19125.0,39,19120.0,19120.0,19115.0,19115.0,298,-142,19110,70,19120,65
2017-01-31 12:57:00,12:57:01,12:57:55,49338,49352,19110.0,70,19115.0,34,19115.0,19115.0,19110.0,19110.0,2,0,19110,74,19115,35
2017-01-31 12:58:00,12:58:04,12:58:51,49357,49439,19110.0,74,19115.0,32,19115.0,19115.0,19115.0,19115.0,72,-38,19110,69,19115,19
2017-01-31 12:59:00,12:59:00,12:59:48,49445,49509,19110.0,67,19115.0,20,19115.0,19115.0,19110.0,19115.0,62,-6,19110,50,19115,38
2017-01-31 13:00:00,13:00:15,13:00:51,49534,49680,19110.0,65,19115.0,44,19110.0,19115.0,19105.0,19105.0,176,-98,19100,32,19105,28
2017-01-31 13:01:00,13:01:04,13:01:50,49697,49778,19100.0,57,19105.0,35,19100.0,19105.0,19100.0,19100.0,88,-24,19100,31,19105,32
2017-01-31 13:02:00,13:02:14,13:02:35,49808,49825,19100.0,57,19105.0,41,19100.0,19100.0,19100.0,19100.0,11,-11,19100,56,19105,37
2017-01-31 13:03:00,13:03:06,13:03:57,49848,49902,19100.0,58,19105.0,41,19105.0,19105.0,19100.0,19100.0,19,-9,19100,52,19105,62
2017-01-31 13:04:00,13:04:02,13:04:56,49907,50222,19100.0,52,19105.0,62,19100.0,19105.0,19095.0,19095.0,350,-41,19090,65,19100,39
2017-01-31 13:05:00,13:05:07,13:05:57,50241,50350,19095.0,30,19100.0,41,19095.0,19095.0,19095.0,19095.0,93,-93,19095,10,19100,45
2017-01-31 13:06:00,13:06:05,13:06:55,50357,50430,19095.0,21,19100.0,46,19095.0,19095.0,19090.0,19095.0,52,-40,19095,1,19100,44
2017-01-31 13:07:00,13:07:04,13:07:57,50436,50525,19090.0,50,19095.0,2,19095.0,19100.0,19085.0,19090.0,81,-25,19090,30,19095,38
2017-01-31 13:08:00,13:08:00,13:08:57,50530,50693,19090.0,30,19095.0,38,19095.0,19095.0,19080.0,19085.0,133,-63,19080,45,19085,7
2017-01-31 13:09:00,13:09:07,13:09:55,50706,50781,19080.0,46,19085.0,25,19080.0,19085.0,19080.0,19085.0,49,5,19080,50,19085,9
2017-01-31 13:10:00,13:10:05,13:10:59,50792,50867,19080.0,53,19085.0,10,19085.0,19085.0,19080.0,19085.0,54,32,19080,45,19085,16
2017-01-31 13:11:00,13:11:01,13:11:57,50875,50974,19080.0,41,19085.0,28,19080.0,19085.0,19080.0,19080.0,39,-3,19080,51,19085,23
2017-01-31 13:12:00,13:12:07,13:12:59,50982,51091,19080.0,52,19085.0,23,19080.0,19085.0,19080.0,19085.0,72,-7,19085,11,19090,89
2017-01-31 13:13:00,13:13:01,13:13:57,51095,51292,19085.0,12,19090.0,89,19085.0,19085.0,19080.0,19080.0,186,44,19080,41,19085,30
2017-01-31 13:14:00,13:14:00,13:14:57,51302,51443,19080.0,38,19085.0,31,19085.0,19085.0,19075.0,19075.0,125,-73,19075,17,19080,54
2017-01-31 13:15:00,13:15:03,13:15:58,51453,51697,19075.0,39,19080.0,37,19075.0,19085.0,19075.0,19080.0,197,-76,19080,16,19085,43
2017-01-31 13:16:00,13:16:00,13:16:57,51701,51773,19080.0,17,19085.0,43,19080.0,19085.0,19080.0,19080.0,29,-27,19080,13,19085,44
2017-01-31 13:17:00,13:17:00,13:17:59,51776,51911,19080.0,13,19085.0,44,19085.0,19085.0,19075.0,19075.0,89,-84,19075,10,19080,53
2017-01-31 13:18:00,13:18:03,13:18:57,51920,52035,19070.0,50,19075.0,24,19075.0,19075.0,19070.0,19070.0,49,11,19070,43,19075,29
2017-01-31 13:19:00,13:19:07,13:19:57,52047,52126,19070.0,42,19075.0,36,19070.0,19075.0,19070.0,19070.0,19,-3,19070,42,19075,32
2017-01-31 13:20:00,13:20:00,13:20:59,52131,52426,19070.0,43,19075.0,33,19070.0,19080.0,19070.0,19075.0,346,104,19070,44,19080,45
2017-01-31 13:21:00,13:21:00,13:21:58,52427,52643,19070.0,43,19075.0,6,19075.0,19075.0,19060.0,19065.0,230,-18,19060,66,19070,44
2017-01-31 13:22:00,13:22:03,13:22:57,52648,52744,19060.0,68,19070.0,46,19065.0,19070.0,19065.0,19065.0,61,19,19065,28,19070,42
2017-01-31 13:23:00,13:23:00,13:23:59,52750,52868,19065.0,23,19070.0,46,19065.0,19070.0,19065.0,19065.0,103,9,19060,63,19065,22
2017-01-31 13:24:00,13:24:07,13:24:57,52874,52988,19060.0,63,19065.0,30,19060.0,19070.0,19060.0,19065.0,76,-28,19065,12,19070,41
2017-01-31 13:25:00,13:25:01,13:25:57,52998,53311,19065.0,7,19070.0,43,19065.0,19065.0,19055.0,19055.0,411,-267,19055,27,19060,38
2017-01-31 13:26:00,13:26:00,13:26:57,53317,53505,19055.0,26,19060.0,46,19060.0,19065.0,19055.0,19055.0,188,-102,19055,21,19060,38
2017-01-31 13:27:00,13:27:05,13:27:57,53515,53684,19055.0,39,19060.0,35,19060.0,19060.0,19050.0,19050.0,111,-75,19050,37,19055,40
2017-01-31 13:28:00,13:28:05,13:28:57,53696,53836,19050.0,33,19055.0,50,19050.0,19055.0,19045.0,19045.0,129,-113,19045,37,19050,153
2017-01-31 13:29:00,13:29:03,13:29:57,53844,53977,19045.0,41,19050.0,154,19050.0,19050.0,19040.0,19040.0,114,-58,19040,40,19045,45
2017-01-31 13:30:00,13:30:02,13:30:59,53987,54587,19040.0,45,19045.0,49,19040.0,19065.0,19035.0,19065.0,918,510,19065,12,19070,39
2017-01-31 13:31:00,13:31:00,13:31:57,54588,54665,19060.0,49,19065.0,4,19065.0,19070.0,19065.0,19065.0,21,-5,19065,66,19070,47
2017-01-31 13:32:00,13:32:00,13:32:57,54669,54960,19065.0,66,19070.0,48,19070.0,19075.0,19050.0,19055.0,373,-94,19055,29,19060,16
2017-01-31 13:33:00,13:33:03,13:33:57,54965,55179,19055.0,27,19060.0,29,19060.0,19070.0,19055.0,19055.0,265,-129,19055,16,19060,31
2017-01-31 13:34:00,13:34:05,13:34:56,55188,55395,19055.0,36,19060.0,32,19055.0,19060.0,19055.0,19060.0,241,16,19055,48,19060,5
2017-01-31 13:35:00,13:35:00,13:35:57,55401,55572,19055.0,49,19060.0,20,19060.0,19060.0,19050.0,19050.0,199,-89,19050,45,19055,48
2017-01-31 13:36:00,13:36:00,13:36:57,55576,55709,19050.0,45,19055.0,51,19050.0,19060.0,19050.0,19055.0,138,105,19055,31,19060,48
2017-01-31 13:37:00,13:37:00,13:37:58,55714,55985,19055.0,36,19060.0,37,19055.0,19070.0,19055.0,19070.0,253,45,19065,22,19070,35
2017-01-31 13:38:00,13:38:06,13:38:57,55996,56077,19065.0,23,19070.0,42,19070.0,19070.0,19065.0,19070.0,25,3,19065,37,19070,28
2017-01-31 13:39:00,13:39:05,13:39:54,56086,56244,19065.0,32,19070.0,75,19070.0,19070.0,19060.0,19065.0,130,-38,19060,96,19065,11
2017-01-31 13:40:00,13:40:05,13:40:58,56261,56402,19060.0,71,19065.0,37,19060.0,19065.0,19060.0,19065.0,155,-131,19060,36,19065,41
2017-01-31 13:41:00,13:41:05,13:41:57,56415,56737,19060.0,32,19065.0,43,19060.0,19065.0,19050.0,19055.0,427,-206,19055,8,19055,17
2017-01-31 13:42:00,13:42:07,13:42:57,56751,56924,19055.0,32,19060.0,59,19055.0,19065.0,19055.0,19055.0,201,129,19055,30,19060,46
2017-01-31 13:43:00,13:43:07,13:43:57,56934,56989,19055.0,40,19060.0,38,19055.0,19060.0,19055.0,19055.0,18,-14,19055,35,19060,39
2017-01-31 13:44:00,13:44:00,13:44:57,56994,57119,19055.0,36,19060.0,37,19060.0,19060.0,19055.0,19055.0,54,-14,19055,31,19060,48
2017-01-31 13:45:00,13:45:01,13:45:52,57130,57337,19055.0,35,19060.0,49,19060.0,19070.0,19055.0,19070.0,208,64,19065,26,19070,53
2017-01-31 13:46:00,13:46:06,13:46:52,57346,57503,19065.0,33,19070.0,48,19070.0,19075.0,19065.0,19070.0,151,57,19060,45,19070,56
2017-01-31 13:47:00,13:47:05,13:47:53,57517,57620,19065.0,29,19070.0,53,19070.0,19075.0,19070.0,19075.0,91,53,19070,35,19075,32
2017-01-31 13:48:00,13:48:23,13:48:54,57648,57800,19070.0,54,19075.0,49,19075.0,19075.0,19065.0,19065.0,188,-2,19060,50,19070,52
2017-01-31 13:49:00,13:49:02,13:49:56,57816,57942,19060.0,47,19065.0,37,19065.0,19065.0,19055.0,19065.0,154,102,19065,7,19070,56
2017-01-31 13:50:00,13:50:00,13:50:57,57951,58193,19065.0,7,19070.0,55,19065.0,19070.0,19060.0,19065.0,265,-63,19060,127,19065,23
2017-01-31 13:51:00,13:51:02,13:51:52,58199,58271,19060.0,127,19065.0,35,19060.0,19070.0,19060.0,19065.0,44,10,19060,132,19065,41
2017-01-31 13:52:00,13:52:00,13:52:59,58283,58936,19060.0,123,19065.0,55,19065.0,19065.0,19035.0,19040.0,1134,-300,19040,26,19045,60
2017-01-31 13:53:00,13:53:00,13:53:58,58937,59285,19040.0,18,19045.0,58,19040.0,19050.0,19040.0,19040.0,426,105,19035,86,19040,11
2017-01-31 13:54:00,13:54:02,13:54:59,59291,59487,19035.0,86,19040.0,22,19040.0,19040.0,19035.0,19040.0,161,15,19035,84,19040,49
2017-01-31 13:55:00,13:55:03,13:55:59,59494,59709,19035.0,97,19040.0,41,19040.0,19040.0,19035.0,19035.0,221,-137,19035,26,19040,69
2017-01-31 13:56:00,13:56:00,13:56:58,59714,59953,19035.0,15,19040.0,74,19035.0,19040.0,19030.0,19040.0,233,-13,19035,42,19040,74
2017-01-31 13:57:00,13:57:01,13:57:55,59958,60127,19035.0,45,19040.0,73,19035.0,19045.0,19035.0,19040.0,161,20,19040,27,19045,54
2017-01-31 13:58:00,13:58:03,13:58:59,60143,60445,19040.0,35,19045.0,50,19040.0,19045.0,19035.0,19040.0,397,-81,19040,63,19045,41
2017-01-31 13:59:00,13:59:00,13:59:59,60446,61009,19040.0,67,19045.0,49,19045.0,19050.0,19040.0,19040.0,915,-35,19035,49,19040,44
2017-01-31 14:00:00,14:00:00,14:00:57,61010,61757,19040.0,21,19045.0,53,19040.0,19045.0,19020.0,19030.0,1525,-247,19025,95,19030,45
2017-01-31 14:01:00,14:01:06,14:01:58,61775,62316,19025.0,153,19030.0,55,19030.0,19030.0,19005.0,19005.0,842,-465,19005,15,19010,63
2017-01-31 14:02:00,14:02:00,14:02:55,62320,62804,19005.0,26,19010.0,63,19010.0,19020.0,19005.0,19005.0,828,-91,19005,155,19010,125
2017-01-31 14:03:00,14:03:00,14:03:57,62809,63096,19005.0,157,19010.0,145,19010.0,19010.0,19000.0,19000.0,503,-45,19000,26,19005,74
2017-01-31 14:04:00,14:04:00,14:04:58,63103,63361,19000.0,39,19005.0,68,19005.0,19010.0,18995.0,18995.0,379,-109,18990,104,18995,24
2017-01-31 14:05:00,14:05:02,14:05:52,63376,63574,18990.0,72,18995.0,43,18995.0,18995.0,18990.0,18990.0,198,-68,18990,62,18995,33
2017-01-31 14:06:00,14:06:06,14:06:59,63592,63801,18990.0,69,18995.0,39,18990.0,19005.0,18990.0,19005.0,241,133,19005,60,19010,76
2017-01-31 14:07:00,14:07:02,14:07:59,63808,64001,19005.0,64,19010.0,75,19005.0,19010.0,18995.0,18995.0,302,-66,18995,32,19000,57
2017-01-31 14:08:00,14:08:00,14:08:57,64006,64329,18995.0,35,19000.0,57,19000.0,19010.0,18995.0,18995.0,698,25,18990,68,18995,14
2017-01-31 14:09:00,14:09:00,14:09:59,64334,64710,18990.0,68,18995.0,18,18995.0,19000.0,18975.0,18980.0,625,-75,18975,44,18980,10
