,ST,ET,sidx,eidx,bB,bBS,bA,bAS,O,H,L,C,V,OF,eB,eBS,eA,eAS
2017-01-25 08:00:00,08:00:00,08:00:58,3136,4426,19080.0,92,19085.0,17,19085.0,19130.0,19080.0,19115.0,2132,521,19110,28,19115,19
2017-01-25 08:01:00,08:01:00,08:01:59,4430,4905,19110.0,20,19115.0,19,19110.0,19120.0,19095.0,19100.0,622,-80,19100,24,19105,35
2017-01-25 08:02:00,08:02:00,08:02:57,4908,5213,19100.0,24,19105.0,35,19105.0,19105.0,19095.0,19100.0,275,-66,19095,36,19100,33
2017-01-25 08:03:00,08:03:01,08:03:57,5223,5705,19095.0,19,19100.0,43,19095.0,19095.0,19080.0,19095.0,603,-43,19095,25,19095,28
2017-01-25 08:04:00,08:04:00,08:04:57,5709,5968,19090.0,25,19095.0,29,19095.0,19110.0,19095.0,19110.0,250,185,19105,13,19110,23
2017-01-25 08:05:00,08:05:00,08:05:54,5975,6483,19105.0,31,19110.0,27,19105.0,19110.0,19095.0,19095.0,674,-145,19095,10,19100,27
2017-01-25 08:06:00,08:06:01,08:06:55,6494,6850,19095.0,24,19100.0,30,19100.0,19110.0,19095.0,19095.0,518,-26,19095,36,19100,21
2017-01-25 08:07:00,08:07:03,08:07:58,6864,7049,19095.0,39,19100.0,22,19100.0,19110.0,19095.0,19110.0,184,154,19105,113,19110,19
2017-01-25 08:08:00,08:08:04,08:08:59,7054,7448,19105.0,113,19110.0,19,19110.0,19125.0,19110.0,19125.0,517,201,19120,80,19125,22
2017-01-25 08:09:00,08:09:00,08:09:59,7453,7782,19120.0,77,19125.0,24,19120.0,19120.0,19105.0,19105.0,493,-259,19100,38,19105,17
2017-01-25 08:10:00,08:10:00,08:10:57,7784,8088,19100.0,41,19105.0,17,19105.0,19105.0,19085.0,19085.0,342,-82,19085,39,19090,81
2017-01-25 08:11:00,08:11:02,08:11:58,8097,8542,19085.0,43,19090.0,82,19085.0,19095.0,19085.0,19085.0,514,-13,19080,39,19085,28
2017-01-25 08:12:00,08:12:05,08:12:59,8552,8801,19080.0,48,19085.0,20,19080.0,19095.0,19080.0,19090.0,259,119,19085,44,19090,24
2017-01-25 08:13:00,08:13:04,08:13:58,8806,9033,19085.0,48,19090.0,25,19090.0,19100.0,19090.0,19095.0,224,131,19090,52,19095,50
2017-01-25 08:14:00,08:14:00,08:14:59,9038,9199,19090.0,51,19095.0,61,19095.0,19100.0,19095.0,19095.0,214,16,19095,20,19100,87
2017-01-25 08:15:00,08:15:00,08:15:57,9201,9523,19095.0,20,19100.0,101,19100.0,19110.0,19100.0,19105.0,399,289,19100,58,19105,13
2017-01-25 08:16:00,08:16:00,08:16:57,9530,9850,19100.0,69,19105.0,15,19105.0,19110.0,19090.0,19095.0,410,-232,19095,21,19100,41
2017-01-25 08:17:00,08:17:11,08:17:56,9861,9978,19095.0,33,19100.0,43,19095.0,19095.0,19090.0,19090.0,91,-25,19085,59,19095,51
2017-01-25 08:18:00,08:18:03,08:18:53,9993,10151,19085.0,63,19095.0,58,19090.0,19090.0,19085.0,19085.0,117,-65,19085,21,19090,55
2017-01-25 08:19:00,08:19:08,08:19:55,10164,10310,19085.0,45,19090.0,51,19090.0,19090.0,19080.0,19080.0,211,-193,19080,33,19085,99
2017-01-25 08:20:00,08:20:01,08:20:50,10323,10494,19080.0,24,19085.0,101,19080.0,19090.0,19080.0,19090.0,198,128,19085,20,19090,47
2017-01-25 08:21:00,08:21:08,08:21:56,10504,10673,19085.0,27,19090.0,47,19090.0,19090.0,19080.0,19085.0,181,76,19085,31,19090,41
2017-01-25 08:22:00,08:22:00,08:22:54,10680,10796,19085.0,8,19090.0,43,19090.0,19090.0,19085.0,19090.0,138,50,19085,49,19090,22
2017-01-25 08:23:00,08:23:04,08:23:53,10808,10981,19085.0,55,19090.0,49,19085.0,19085.0,19080.0,19080.0,190,-150,19080,14,19085,94
2017-01-25 08:24:00,08:24:02,08:24:52,10997,11183,19080.0,36,19085.0,88,19085.0,19090.0,19080.0,19090.0,240,134,19085,48,19090,48
2017-01-25 08:25:00,08:25:00,08:25:55,11194,11331,19085.0,49,19090.0,53,19090.0,19100.0,19090.0,19095.0,129,15,19090,51,19095,33
2017-01-25 08:26:00,08:26:02,08:26:51,11339,11539,19090.0,50,19095.0,33,19090.0,19095.0,19085.0,19085.0,151,-87,19085,12,19090,69
2017-01-25 08:27:00,08:27:00,08:27:57,11558,11719,19085.0,14,19090.0,75,19090.0,19100.0,19085.0,19095.0,165,113,19095,19,19100,30
2017-01-25 08:28:00,08:28:00,08:28:59,11727,11931,19095.0,14,19100.0,45,19095.0,19100.0,19085.0,19090.0,185,-73,19085,47,19095,34
2017-01-25 08:29:00,08:29:00,08:29:59,11936,12120,19085.0,48,19095.0,47,19090.0,19095.0,19085.0,19090.0,109,-12,19085,39,19090,2
2017-01-25 08:30:00,08:30:00,08:30:55,12121,12263,19085.0,40,19095.0,35,19090.0,19100.0,19090.0,19095.0,94,-2,19090,43,19095,8
2017-01-25 08:31:00,08:31:00,08:31:55,12269,12461,19090.0,43,19095.0,10,19090.0,19090.0,19085.0,19090.0,204,40,19085,53,19090,13
2017-01-25 08:32:00,08:32:00,08:32:54,12471,12885,19085.0,71,19090.0,31,19085.0,19085.0,19060.0,19065.0,502,-282,19060,53,19070,53
2017-01-25 08:33:00,08:33:05,08:33:48,12911,13091,19060.0,48,19065.0,24,19060.0,19070.0,19060.0,19070.0,228,184,19070,46,19075,34
2017-01-25 08:34:00,08:34:18,08:34:55,13123,13287,19070.0,58,19075.0,85,19075.0,19075.0,19065.0,19070.0,207,-195,19070,3,19075,103
2017-01-25 08:35:00,08:35:05,08:35:45,13296,13480,19070.0,33,19075.0,103,19075.0,19090.0,19075.0,19085.0,263,163,19085,48,19090,35
2017-01-25 08:36:00,08:36:15,08:36:57,13507,13678,19085.0,59,19090.0,68,19085.0,19085.0,19080.0,19085.0,186,-81,19080,46,19085,9
2017-01-25 08:37:00,08:37:01,08:37:59,13682,13890,19080.0,45,19085.0,7,19085.0,19090.0,19080.0,19080.0,204,-6,19080,51,19085,32
2017-01-25 08:38:00,08:38:02,08:38:59,13899,14090,19080.0,53,19085.0,29,19080.0,19090.0,19080.0,19085.0,139,31,19085,30,19090,53
2017-01-25 08:39:00,08:39:00,08:39:59,14093,14129,19085.0,30,19090.0,53,19090.0,19090.0,19085.0,19085.0,9,-5,19085,36,19090,50
2017-01-25 08:40:00,08:40:00,08:40:59,14131,14245,19085.0,36,19090.0,51,19090.0,19090.0,19085.0,19085.0,73,-35,19085,28,19090,46
2017-01-25 08:41:00,08:41:07,08:41:59,14256,14323,19085.0,37,19090.0,50,19090.0,19090.0,19080.0,19080.0,33,-31,19080,50,19085,47
2017-01-25 08:42:00,08:42:12,08:42:59,14332,14548,19080.0,50,19085.0,48,19080.0,19080.0,19060.0,19060.0,267,-153,19060,40,19065,26
2017-01-25 08:43:00,08:43:07,08:43:59,14564,14693,19060.0,42,19065.0,42,19065.0,19065.0,19055.0,19055.0,77,-43,19055,14,19060,50
2017-01-25 08:44:00,08:44:00,08:44:59,14697,14889,19055.0,41,19060.0,50,19055.0,19060.0,19050.0,19055.0,218,52,19055,38,19060,46
2017-01-25 08:45:00,08:45:00,08:45:59,14892,15072,19055.0,38,19060.0,46,19055.0,19060.0,19050.0,19050.0,164,-21,19050,83,19055,20
2017-01-25 08:46:00,08:46:08,08:46:59,15084,15283,19050.0,85,19055.0,21,19055.0,19060.0,19045.0,19050.0,248,-92,19050,33,19055,41
2017-01-25 08:47:00,08:47:18,08:47:59,15304,15362,19050.0,48,19055.0,34,19050.0,19050.0,19050.0,19050.0,8,-8,19050,38,19055,43
2017-01-25 08:48:00,08:48:05,08:48:59,15375,15555,19050.0,43,19055.0,47,19055.0,19055.0,19035.0,19045.0,168,22,19045,34,19050,68
2017-01-25 08:49:00,08:49:08,08:49:59,15568,15747,19045.0,21,19050.0,68,19045.0,19055.0,19045.0,19050.0,215,147,19050,49,19055,44
2017-01-25 08:50:00,08:50:05,08:50:59,15754,15888,19050.0,47,19055.0,46,19050.0,19050.0,19045.0,19045.0,94,-28,19045,37,19050,46
2017-01-25 08:51:00,08:51:19,08:51:59,15902,15946,19045.0,46,19050.0,43,19045.0,19050.0,19045.0,19045.0,9,-7,19045,35,19050,42
2017-01-25 08:52:00,08:52:00,08:52:59,15948,16057,19045.0,35,19050.0,43,19045.0,19050.0,19045.0,19050.0,29,5,19050,43,19055,53
2017-01-25 08:53:00,08:53:00,08:53:59,16060,16269,19050.0,43,19055.0,53,19055.0,19060.0,19050.0,19050.0,192,22,19050,41,19055,24
2017-01-25 08:54:00,08:54:05,08:54:59,16288,16437,19050.0,49,19055.0,7,19055.0,19055.0,19045.0,19050.0,94,-66,19050,19,19055,30
2017-01-25 08:55:00,08:55:19,08:55:59,16466,16562,19050.0,35,19055.0,34,19050.0,19055.0,19050.0,19050.0,35,21,19050,21,19055,36
2017-01-25 08:56:00,08:56:02,08:56:59,16567,16752,19050.0,24,19055.0,36,19050.0,19050.0,19035.0,19035.0,166,-78,19035,28,19040,36
2017-01-25 08:57:00,08:57:19,08:57:59,16768,16884,19035.0,34,19040.0,42,19035.0,19035.0,19030.0,19030.0,104,-4,19030,26,19035,32
2017-01-25 08:58:00,08:58:00,08:58:59,16885,17085,19030.0,54,19035.0,2,19030.0,19035.0,19025.0,19035.0,189,-89,19035,31,19040,32
2017-01-25 08:59:00,08:59:19,08:59:59,17104,17311,19035.0,32,19040.0,36,19035.0,19040.0,19035.0,19035.0,163,-133,19035,18,19035,2
2017-01-25 09:00:00,09:00:01,09:00:48,17313,17562,19035.0,18,19040.0,31,19035.0,19035.0,19015.0,19025.0,369,-197,19020,41,19025,3
2017-01-25 09:01:00,09:01:11,09:01:58,17590,17782,19020.0,35,19025.0,29,19025.0,19030.0,19015.0,19030.0,164,12,19030,6,19035,83
2017-01-25 09:02:00,09:02:00,09:02:58,17785,17987,19030.0,6,19035.0,83,19030.0,19030.0,19025.0,19025.0,170,-39,19020,46,19030,71
2017-01-25 09:03:00,09:03:00,09:03:44,17995,18183,19020.0,46,19025.0,3,19025.0,19035.0,19025.0,19030.0,216,110,19030,1,19035,159
2017-01-25 09:04:00,09:04:11,09:04:45,18208,18332,19030.0,33,19035.0,159,19030.0,19035.0,19030.0,19035.0,206,118,19030,43,19035,3
2017-01-25 09:05:00,09:05:14,09:05:41,18378,18434,19030.0,26,19035.0,32,19035.0,19035.0,19025.0,19025.0,30,-4,19025,25,19030,42
2017-01-25 09:06:00,09:06:00,09:06:48,18465,18773,19025.0,33,19030.0,74,19030.0,19040.0,19025.0,19030.0,509,267,19030,12,19035,38
2017-01-25 09:07:00,09:07:00,09:07:57,18793,18950,19030.0,38,19035.0,29,19030.0,19040.0,19030.0,19040.0,112,108,19035,40,19040,20
2017-01-25 09:08:00,09:08:00,09:08:44,18953,19143,19035.0,40,19040.0,20,19040.0,19040.0,19040.0,19040.0,165,13,19035,36,19040,1
2017-01-25 09:09:00,09:09:06,09:09:48,19175,19267,19035.0,30,19040.0,26,19040.0,19040.0,19040.0,19040.0,47,45,19035,40,19045,41
2017-01-25 09:10:00,09:10:02,09:10:40,19275,19407,19035.0,36,19040.0,14,19040.0,19045.0,19040.0,19040.0,86,4,19035,44,19040,7
2017-01-25 09:11:00,09:11:02,09:11:53,19441,19700,19040.0,42,19045.0,18,19040.0,19055.0,19040.0,19045.0,238,48,19045,4,19050,36
2017-01-25 09:12:00,09:12:14,09:12:55,19731,19830,19045.0,6,19050.0,44,19050.0,19050.0,19045.0,19050.0,81,79,19050,28,19055,31
2017-01-25 09:13:00,09:13:00,09:13:52,19837,19971,19050.0,36,19055.0,32,19055.0,19060.0,19055.0,19055.0,122,58,19050,35,19055,9
2017-01-25 09:14:00,09:14:02,09:14:55,19987,20103,19050.0,27,19055.0,28,19050.0,19055.0,19045.0,19045.0,99,-95,19040,31,19045,6
2017-01-25 09:15:00,09:15:10,09:15:42,20127,20231,19040.0,18,19045.0,27,19040.0,19045.0,19040.0,19045.0,116,96,19040,36,19045,6
2017-01-25 09:16:00,09:16:02,09:16:58,20250,20342,19040.0,36,19045.0,13,19045.0,19045.0,19045.0,19045.0,109,-11,19040,30,19045,8
2017-01-25 09:17:00,09:17:02,09:17:57,20347,20486,19040.0,31,19045.0,11,19045.0,19045.0,19035.0,19035.0,98,2,19030,32,19035,13
2017-01-25 09:18:00,09:18:07,09:18:33,20503,20666,19030.0,30,19035.0,34,19035.0,19035.0,19030.0,19030.0,143,15,19030,4,19035,52
2017-01-25 09:19:00,09:19:00,09:19:59,20709,20828,19030.0,10,19035.0,87,19030.0,19035.0,19030.0,19030.0,69,-67,19030,28,19035,46
2017-01-25 09:20:00,09:20:00,09:20:26,20831,20951,19030.0,28,19035.0,46,19030.0,19035.0,19030.0,19035.0,109,51,19030,42,19035,8
2017-01-25 09:21:00,09:21:00,09:21:54,20975,21089,19030.0,43,19035.0,23,19030.0,19035.0,19030.0,19035.0,60,-4,19030,38,19035,37
2017-01-25 09:22:00,09:22:14,09:22:45,21101,21232,19030.0,40,19035.0,42,19030.0,19030.0,19025.0,19025.0,120,-92,19025,2,19030,36
2017-01-25 09:23:00,09:23:07,09:23:49,21245,21345,19025.0,35,19030.0,36,19025.0,19025.0,19020.0,19020.0,66,-66,19020,27,19025,30
2017-01-25 09:24:00,09:24:05,09:24:58,21368,21595,19020.0,8,19025.0,55,19020.0,19020.0,19010.0,19010.0,233,-69,19010,19,19015,44
2017-01-25 09:25:00,09:25:00,09:25:57,21602,21757,19010.0,26,19015.0,42,19010.0,19015.0,19010.0,19015.0,147,97,19010,39,19015,24
2017-01-25 09:26:00,09:26:09,09:26:59,21770,21948,19010.0,42,19015.0,16,19015.0,19015.0,19005.0,19005.0,298,-14,19005,20,19010,37
2017-01-25 09:27:00,09:27:08,09:27:49,21961,22081,19005.0,48,19010.0,36,19005.0,19010.0,19005.0,19010.0,129,-39,19005,32,19010,30
2017-01-25 09:28:00,09:28:00,09:28:33,22092,22130,19005.0,34,19010.0,29,19010.0,19010.0,19010.0,19010.0,15,15,19005,53,19010,11
2017-01-25 09:29:00,09:29:00,09:29:58,22153,22381,19005.0,55,19010.0,16,19010.0,19010.0,19005.0,19010.0,208,0,19010,21,19015,43
2017-01-25 09:30:00,09:30:00,09:30:54,22387,22514,19010.0,9,19015.0,46,19010.0,19015.0,19010.0,19015.0,70,-7,19015,8,19020,35
2017-01-25 09:31:00,09:31:02,09:31:34,22524,22605,19015.0,10,19020.0,34,19015.0,19015.0,19015.0,19015.0,51,13,19015,11,19020,38
2017-01-25 09:32:00,09:32:00,09:32:58,22621,22815,19015.0,27,19020.0,35,19020.0,19030.0,19020.0,19030.0,135,67,19025,30,19030,23
2017-01-25 09:33:00,09:33:05,09:33:59,22826,22973,19025.0,32,19030.0,19,19030.0,19030.0,19025.0,19025.0,105,63,19025,2,19030,42
2017-01-25 09:34:00,09:34:00,09:34:22,22978,23002,19025.0,1,19030.0,41,19025.0,19025.0,19025.0,19025.0,14,8,19025,17,19030,45
2017-01-25 09:35:00,09:35:18,09:35:39,23036,23165,19025.0,30,19030.0,28,19025.0,19025.0,19015.0,19015.0,107,-67,19010,37,19015,12
2017-01-25 09:36:00,09:36:12,09:36:41,23208,23265,19010.0,37,19015.0,16,19015.0,19015.0,19010.0,19015.0,25,13,19010,37,19015,9
2017-01-25 09:37:00,09:37:28,09:37:56,23313,23393,19010.0,30,19015.0,47,19010.0,19010.0,19005.0,19005.0,59,-43,19005,15,19010,38
2017-01-25 09:38:00,09:38:01,09:38:53,23404,23545,19005.0,25,19010.0,38,19010.0,19015.0,19005.0,19015.0,126,95,19015,12,19020,41
2017-01-25 09:39:00,09:39:06,09:39:58,23570,23783,19015.0,30,19020.0,27,19020.0,19025.0,19015.0,19015.0,161,-55,19010,38,19015,13
2017-01-25 09:40:00,09:40:00,09:40:55,23786,23903,19010.0,41,19015.0,14,19010.0,19025.0,19010.0,19025.0,70,56,19025,44,19030,31
2017-01-25 09:41:00,09:41:00,09:41:19,23906,24012,19025.0,44,19030.0,31,19030.0,19030.0,19030.0,19030.0,100,15,19025,41,19030,4
2017-01-25 09:42:00,09:42:00,09:42:00,24028,24029,19025.0,37,19030.0,25,19025.0,19025.0,19025.0,19025.0,2,-2,19025,33,19030,17
2017-01-25 09:43:00,09:43:01,09:43:56,24066,24103,19025.0,32,19030.0,22,19025.0,19030.0,19025.0,19025.0,4,0,19025,29,19030,25
2017-01-25 09:44:00,09:44:03,09:44:59,24107,24162,19025.0,30,19030.0,25,19030.0,19030.0,19025.0,19030.0,25,23,19030,11,19035,65
2017-01-25 09:45:00,09:45:00,09:45:54,24163,24255,19025.0,37,19030.0,18,19030.0,19035.0,19030.0,19035.0,72,70,19035,30,19040,32
2017-01-25 09:46:00,09:46:28,09:46:58,24275,24338,19035.0,25,19040.0,33,19035.0,19035.0,19030.0,19030.0,27,-27,19030,12,19035,43
2017-01-25 09:47:00,09:47:17,09:47:57,24352,24412,19030.0,15,19035.0,40,19030.0,19035.0,19030.0,19035.0,35,27,19035,9,19040,41
2017-01-25 09:48:00,09:48:45,09:48:59,24444,24476,19035.0,29,19040.0,32,19035.0,19035.0,19030.0,19030.0,19,-18,19030,2,19030,42
2017-01-25 09:49:00,09:49:04,09:49:41,24479,24582,19030.0,3,19035.0,37,19030.0,19030.0,19025.0,19025.0,72,-26,19025,4,19030,35
2017-01-25 09:50:00,09:50:00,09:50:52,24604,24638,19025.0,10,19030.0,34,19030.0,19030.0,19030.0,19030.0,24,24,19025,35,19030,18
2017-01-25 09:51:00,09:51:21,09:51:30,24655,24666,19025.0,41,19030.0,27,19030.0,19030.0,19030.0,19030.0,11,11,19025,35,19030,17
2017-01-25 09:52:00,09:52:08,09:52:58,24688,24752,19025.0,37,19030.0,37,19030.0,19030.0,19025.0,19025.0,52,-40,19020,43,19025,30
2017-01-25 09:53:00,09:53:06,09:53:57,24759,24870,19020.0,44,19025.0,36,19020.0,19025.0,19020.0,19025.0,90,23,19020,41,19025,14
2017-01-25 09:54:00,09:54:00,09:54:51,24875,24919,19020.0,41,19025.0,21,19020.0,19025.0,19020.0,19025.0,34,8,19020,30,19025,16
2017-01-25 09:55:00,09:55:49,09:55:50,24993,24995,19020.0,29,19025.0,24,19020.0,19025.0,19020.0,19025.0,2,0,19020,30,19025,22
2017-01-25 09:56:00,09:56:03,09:56:42,25010,25087,19020.0,30,19025.0,23,19025.0,19030.0,19025.0,19030.0,67,67,19025,27,19030,10
2017-01-25 09:57:00,09:57:10,09:57:29,25100,25179,19025.0,29,19030.0,19,19030.0,19035.0,19030.0,19035.0,76,50,19035,19,19040,40
2017-01-25 09:58:00,09:58:00,09:58:33,25200,25242,19035.0,34,19040.0,34,19040.0,19040.0,19040.0,19040.0,34,34,19035,34,19040,19
2017-01-25 09:59:00,09:59:05,09:59:49,25256,25441,19035.0,33,19040.0,34,19040.0,19040.0,19035.0,19035.0,180,-62,19035,2,19040,27
2017-01-25 10:00:00,10:00:02,10:00:58,25452,25577,19035.0,27,19040.0,27,19040.0,19045.0,19040.0,19045.0,92,9,19040,37,19045,18
2017-01-25 10:01:00,10:01:14,10:01:42,25600,25692,19040.0,31,19045.0,27,19045.0,19045.0,19035.0,19035.0,55,-47,19030,41,19035,4
2017-01-25 10:02:00,10:02:13,10:02:13,25717,25717,19030.0,40,19035.0,12,19030.0,19030.0,19030.0,19030.0,1,-1,19030,39,19035,17
2017-01-25 10:03:00,10:03:02,10:03:53,25767,25955,19030.0,29,19035.0,27,19035.0,19035.0,19025.0,19030.0,183,63,19030,10,19035,37
2017-01-25 10:04:00,10:04:00,10:04:21,25963,26007,19030.0,13,19035.0,30,19030.0,19035.0,19030.0,19030.0,39,17,19030,20,19035,25
2017-01-25 10:05:00,10:05:00,10:05:25,26021,26033,19030.0,19,19035.0,33,19030.0,19035.0,19030.0,19030.0,5,-3,19030,25,19035,33
2017-01-25 10:06:00,10:06:08,10:06:59,26064,26138,19030.0,24,19035.0,24,19035.0,19035.0,19030.0,19035.0,43,23,19035,3,19040,47
2017-01-25 10:07:00,10:07:23,10:07:45,26158,26240,19035.0,12,19040.0,37,19040.0,19040.0,19035.0,19035.0,67,23,19030,38,19035,6
2017-01-25 10:08:00,10:08:06,10:08:29,26254,26285,19030.0,32,19035.0,26,19035.0,19035.0,19030.0,19035.0,24,20,19030,33,19035,6
2017-01-25 10:09:00,10:09:05,10:09:53,26307,26371,19030.0,30,19035.0,22,19030.0,19030.0,19030.0,19030.0,16,-16,19030,24,19035,29
2017-01-25 10:10:00,10:10:03,10:10:59,26385,26576,19030.0,26,19035.0,30,19035.0,19040.0,19030.0,19040.0,131,-21,19035,28,19040,11
2017-01-25 10:11:00,10:11:00,10:11:51,26577,26652,19035.0,34,19040.0,4,19040.0,19040.0,19035.0,19035.0,44,18,19035,19,19040,33
2017-01-25 10:12:00,10:12:19,10:12:56,26667,26702,19035.0,32,19040.0,32,19035.0,19040.0,19035.0,19040.0,18,-10,19035,29,19040,30
2017-01-25 10:13:00,10:13:05,10:13:36,26718,26809,19035.0,34,19040.0,24,19040.0,19040.0,19040.0,19040.0,54,18,19035,34,19045,45
2017-01-25 10:14:00,10:14:35,10:14:36,26855,26868,19035.0,34,19040.0,31,19040.0,19040.0,19035.0,19035.0,10,-6,19035,35,19040,15
2017-01-25 10:15:00,10:15:01,10:15:47,26894,26961,19035.0,22,19040.0,30,19035.0,19035.0,19035.0,19035.0,35,-35,19035,34,19040,18
2017-01-25 10:16:00,10:16:01,10:16:59,26971,27157,19035.0,34,19040.0,23,19040.0,19040.0,19025.0,19025.0,160,-126,19020,40,19025,3
2017-01-25 10:17:00,10:17:00,10:17:48,27158,27517,19025.0,14,19030.0,54,19025.0,19025.0,19000.0,19000.0,354,-206,18995,34,19000,16
2017-01-25 10:18:00,10:18:00,10:18:59,27547,27979,18995.0,22,19000.0,44,18995.0,19000.0,18990.0,18995.0,594,-16,18995,7,19000,45
2017-01-25 10:19:00,10:19:00,10:19:59,27983,28166,18995.0,10,19000.0,45,18995.0,18995.0,18980.0,18980.0,196,-90,18980,38,18985,85
2017-01-25 10:20:00,10:20:00,10:20:59,28172,28537,18980.0,42,18985.0,84,18980.0,18980.0,18975.0,18975.0,400,-10,18975,45,18980,23
2017-01-25 10:21:00,10:21:05,10:21:58,28546,28749,18975.0,46,18980.0,26,18975.0,18990.0,18975.0,18985.0,121,54,18985,21,18990,41
2017-01-25 10:22:00,10:22:00,10:22:54,28753,29026,18985.0,21,18990.0,42,18985.0,18995.0,18985.0,18985.0,242,-28,18985,4,18990,55
2017-01-25 10:23:00,10:23:00,10:23:59,29034,29303,18985.0,5,18990.0,61,18985.0,18985.0,18975.0,18980.0,212,-14,18975,45,18985,36
2017-01-25 10:24:00,10:24:00,10:24:54,29308,29446,18975.0,45,18980.0,5,18980.0,18985.0,18980.0,18980.0,73,-9,18980,20,18985,30
2017-01-25 10:25:00,10:25:00,10:25:57,29456,29626,18980.0,27,18985.0,31,18980.0,18980.0,18970.0,18980.0,118,-60,18975,33,18980,32
2017-01-25 10:26:00,10:26:00,10:26:56,29632,29791,18975.0,31,18980.0,34,18975.0,18980.0,18975.0,18975.0,118,64,18975,20,18980,30
2017-01-25 10:27:00,10:27:01,10:27:57,29799,29928,18975.0,21,18980.0,32,18975.0,18980.0,18970.0,18970.0,57,-51,18970,35,18975,48
2017-01-25 10:28:00,10:28:02,10:28:53,29938,30046,18970.0,47,18975.0,46,18970.0,18975.0,18970.0,18970.0,44,-36,18970,41,18975,82
2017-01-25 10:29:00,10:29:01,10:29:59,30053,30245,18970.0,40,18975.0,83,18975.0,18980.0,18970.0,18980.0,145,57,18975,49,18980,52
2017-01-25 10:30:00,10:30:00,10:30:56,30248,30621,18975.0,49,18980.0,52,18975.0,18995.0,18970.0,18990.0,401,183,18985,38,18990,4
2017-01-25 10:31:00,10:31:02,10:31:06,30632,30640,18985.0,44,18990.0,13,18990.0,18990.0,18985.0,18985.0,4,-2,18985,22,18990,37
2017-01-25 10:32:00,10:32:06,10:32:44,30689,30741,18985.0,36,18990.0,37,18990.0,18990.0,18980.0,18980.0,31,-29,18980,33,18985,36
2017-01-25 10:33:00,10:33:04,10:33:47,30751,30805,18980.0,33,18985.0,33,18980.0,18985.0,18980.0,18985.0,32,24,18985,23,18990,36
2017-01-25 10:34:00,10:34:01,10:34:28,30815,30857,18985.0,26,18990.0,36,18990.0,18990.0,18980.0,18980.0,24,-16,18980,44,18985,29
2017-01-25 10:35:00,10:35:17,10:35:57,30873,30925,18980.0,49,18985.0,30,18980.0,18985.0,18980.0,18985.0,26,18,18980,48,18985,2
2017-01-25 10:36:00,10:36:02,10:36:57,30931,31041,18980.0,49,18985.0,15,18985.0,18990.0,18980.0,18985.0,92,30,18980,34,18985,12
2017-01-25 10:37:00,10:37:00,10:37:24,31045,31058,18980.0,34,18985.0,20,18985.0,18985.0,18985.0,18985.0,3,3,18980,33,18985,17
2017-01-25 10:38:00,10:38:07,10:38:59,31084,31151,18980.0,29,18985.0,30,18985.0,18985.0,18980.0,18980.0,30,-26,18980,36,18985,27
2017-01-25 10:39:00,10:39:43,10:39:43,31164,31193,18980.0,40,18985.0,28,18985.0,18985.0,18985.0,18985.0,39,39,18985,14,18990,37
2017-01-25 10:40:00,10:40:09,10:40:36,31205,31290,18985.0,42,18990.0,38,18990.0,18990.0,18990.0,18990.0,75,37,18985,40,18990,35
2017-01-25 10:41:00,10:41:20,10:41:42,31299,31360,18985.0,43,18990.0,37,18985.0,18985.0,18980.0,18980.0,76,-62,18980,8,18985,35
2017-01-25 10:42:00,10:42:07,10:42:07,31378,31387,18980.0,15,18985.0,39,18980.0,18980.0,18980.0,18980.0,13,-13,18975,50,18980,12
2017-01-25 10:43:00,10:43:31,10:43:33,31422,31456,18975.0,46,18980.0,29,18980.0,18980.0,18980.0,18980.0,40,6,18980,15,18985,35
2017-01-25 10:44:00,10:44:03,10:44:07,31486,31519,18980.0,33,18985.0,22,18985.0,18985.0,18985.0,18985.0,38,0,18980,34,18985,7
2017-01-25 10:45:00,10:45:17,10:45:55,31574,31660,18980.0,30,18985.0,33,18980.0,18980.0,18965.0,18970.0,104,-104,18965,24,18970,23
2017-01-25 10:46:00,10:46:01,10:46:59,31673,31827,18965.0,25,18970.0,25,18965.0,18970.0,18965.0,18970.0,105,71,18970,28,18975,18
2017-01-25 10:47:00,10:47:12,10:47:25,31849,31892,18970.0,32,18975.0,10,18975.0,18980.0,18975.0,18980.0,34,30,18975,23,18980,23
2017-01-25 10:48:00,10:48:01,10:48:54,31922,32016,18975.0,36,18980.0,16,18980.0,18980.0,18980.0,18980.0,77,-38,18980,12,18985,40
2017-01-25 10:49:00,10:49:00,10:49:47,32019,32135,18975.0,43,18980.0,1,18980.0,18990.0,18980.0,18985.0,119,61,18980,33,18985,9
2017-01-25 10:50:00,10:50:00,10:50:00,32148,32148,18980.0,37,18985.0,14,18985.0,18985.0,18985.0,18985.0,1,1,18980,39,18985,11
2017-01-25 10:51:00,10:51:01,10:51:50,32177,32293,18980.0,40,18985.0,16,18985.0,18985.0,18965.0,18965.0,69,-65,18965,9,18970,41
2017-01-25 10:52:00,10:52:06,10:52:49,32311,32346,18965.0,14,18970.0,37,18965.0,18970.0,18965.0,18970.0,10,8,18965,30,18970,30
2017-01-25 10:53:00,10:53:03,10:53:37,32352,32417,18965.0,27,18970.0,34,18965.0,18970.0,18965.0,18970.0,54,24,18970,22,18975,22
2017-01-25 10:54:00,10:54:03,10:54:48,32432,32538,18970.0,34,18975.0,17,18975.0,18980.0,18975.0,18975.0,105,47,18970,32,18975,6
2017-01-25 10:55:00,10:55:54,10:55:54,32573,32592,18970.0,34,18975.0,26,18975.0,18975.0,18975.0,18975.0,21,15,18970,37,18980,32
2017-01-25 10:56:00,10:56:02,10:56:53,32596,32634,18970.0,39,18980.0,32,18975.0,18975.0,18975.0,18975.0,4,-1,18975,28,18980,22
2017-01-25 10:57:00,10:57:33,10:57:33,32655,32655,18975.0,28,18980.0,27,18975.0,18975.0,18975.0,18975.0,1,-1,18975,27,18980,28
2017-01-25 10:58:00,10:58:04,10:58:33,32667,32698,18975.0,28,18980.0,28,18975.0,18980.0,18975.0,18980.0,5,-1,18975,31,18980,25
2017-01-25 10:59:00,10:59:05,10:59:57,32713,32795,18975.0,22,18980.0,31,18980.0,18980.0,18975.0,18980.0,46,-16,18980,9,18985,43
2017-01-25 11:00:00,11:00:18,11:00:41,32818,32850,18980.0,32,18985.0,28,18980.0,18985.0,18980.0,18985.0,22,14,18980,32,18985,17
2017-01-25 11:01:00,11:01:05,11:01:55,32867,32890,18980.0,36,18985.0,23,18980.0,18985.0,18980.0,18980.0,7,-3,18980,29,18985,35
2017-01-25 11:02:00,11:02:09,11:02:45,32894,32956,18980.0,30,18985.0,35,18985.0,18985.0,18975.0,18975.0,47,-45,18975,8,18980,39
2017-01-25 11:03:00,11:03:00,11:03:57,32975,33157,18975.0,24,18980.0,31,18980.0,18985.0,18980.0,18980.0,169,-5,18975,28,18980,22
2017-01-25 11:04:00,11:04:14,11:04:51,33175,33221,18975.0,31,18980.0,36,18975.0,18975.0,18975.0,18975.0,18,-6,18975,1,18980,43
2017-01-25 11:05:00,11:05:00,11:05:00,0,0,0.0,0,0.0,0,18975.0,18975.0,18975.0,18975.0,0,0,0,0,0,0
2017-01-25 11:06:00,11:06:04,11:06:58,33246,33260,18975.0,24,18980.0,42,18980.0,18980.0,18975.0,18975.0,3,-1,18975,24,18980,42
2017-01-25 11:07:00,11:07:21,11:07:55,33271,33318,18975.0,26,18980.0,44,18980.0,18980.0,18980.0,18980.0,34,26,18980,27,18985,22
2017-01-25 11:08:00,11:08:05,11:08:26,33328,33335,18980.0,35,18985.0,21,18985.0,18985.0,18980.0,18980.0,2,0,18980,35,18985,17
2017-01-25 11:09:00,11:09:06,11:09:59,33352,33383,18980.0,34,18985.0,20,18985.0,18985.0,18980.0,18985.0,12,8,18980,31,18985,16
2017-01-25 11:10:00,11:10:02,11:10:27,33389,33400,18980.0,31,18985.0,19,18985.0,18985.0,18980.0,18980.0,2,0,18980,33,18985,19
2017-01-25 11:11:00,11:11:09,11:11:41,33412,33422,18980.0,37,18985.0,22,18985.0,18985.0,18980.0,18980.0,2,0,18980,34,18985,25
2017-01-25 11:12:00,11:12:00,11:12:48,33430,33522,18980.0,34,18985.0,29,18980.0,18985.0,18975.0,18975.0,52,-40,18975,9,18980,39
2017-01-25 11:13:00,11:13:36,11:13:51,33538,33552,18975.0,38,18980.0,27,18975.0,18975.0,18975.0,18975.0,2,-2,18975,29,18980,35
2017-01-25 11:14:00,11:14:00,11:14:54,33556,33626,18975.0,29,18980.0,32,18975.0,18985.0,18975.0,18985.0,38,28,18985,30,18990,33
2017-01-25 11:15:00,11:15:03,11:15:52,33636,33678,18985.0,33,18990.0,33,18990.0,18990.0,18985.0,18985.0,24,-22,18985,26,18990,41
2017-01-25 11:16:00,11:16:00,11:16:42,33680,33721,18985.0,26,18990.0,40,18985.0,18990.0,18980.0,18980.0,16,-14,18980,47,18985,19
2017-01-25 11:17:00,11:17:13,11:17:52,33736,33772,18980.0,43,18985.0,27,18985.0,18985.0,18985.0,18985.0,30,30,18980,45,18985,9
2017-01-25 11:18:00,11:18:08,11:18:08,33777,33777,18980.0,45,18985.0,15,18985.0,18985.0,18985.0,18985.0,1,1,18980,44,18985,14
2017-01-25 11:19:00,11:19:01,11:19:37,33798,33849,18980.0,43,18985.0,26,18985.0,18985.0,18980.0,18985.0,39,5,18980,45,18985,16
2017-01-25 11:20:00,11:20:56,11:20:56,33880,33880,18980.0,44,18985.0,30,18980.0,18980.0,18980.0,18980.0,1,-1,18980,43,18985,29
2017-01-25 11:21:00,11:21:06,11:21:59,33886,33939,18980.0,43,18985.0,30,18985.0,18990.0,18985.0,18990.0,29,29,18985,37,18990,23
2017-01-25 11:22:00,11:22:07,11:22:47,33948,33975,18985.0,38,18990.0,24,18990.0,18990.0,18990.0,18990.0,9,5,18990,27,18995,47
2017-01-25 11:23:00,11:23:04,11:23:46,33982,34056,18990.0,32,18995.0,47,18990.0,18990.0,18985.0,18985.0,31,-29,18980,38,18985,31
2017-01-25 11:24:00,11:24:12,11:24:12,34068,34068,18980.0,42,18985.0,31,18980.0,18980.0,18980.0,18980.0,1,-1,18980,43,18985,32
2017-01-25 11:25:00,11:25:08,11:25:08,34080,34080,18980.0,42,18985.0,26,18985.0,18985.0,18985.0,18985.0,1,1,18980,43,18985,23
2017-01-25 11:26:00,11:26:07,11:26:52,34109,34135,18980.0,44,18985.0,23,18985.0,18985.0,18980.0,18985.0,17,11,18985,27,18990,41
2017-01-25 11:27:00,11:27:02,11:27:59,34147,34294,18985.0,30,18990.0,36,18990.0,18995.0,18990.0,18990.0,198,-41,18990,19,18995,24
2017-01-25 11:28:00,11:28:02,11:28:49,34299,34393,18990.0,26,18995.0,23,18990.0,19000.0,18990.0,19000.0,65,61,18995,30,19000,5
2017-01-25 11:29:00,11:29:00,11:29:59,34399,34457,18995.0,33,19000.0,23,19000.0,19000.0,18995.0,19000.0,13,7,18990,26,19000,19
2017-01-25 11:30:00,11:30:00,11:30:46,34459,34600,18995.0,46,19000.0,19,18995.0,19000.0,18990.0,18990.0,83,9,18990,19,18995,27
2017-01-25 11:31:00,11:31:01,11:31:36,34622,34700,18990.0,24,18995.0,7,18995.0,19000.0,18995.0,19000.0,41,9,18995,20,19000,24
2017-01-25 11:32:00,11:32:11,11:32:44,34727,34800,18995.0,29,19000.0,22,19000.0,19000.0,18995.0,18995.0,48,6,18990,29,19000,30
2017-01-25 11:33:00,11:33:01,11:33:49,34825,34939,18990.0,10,18995.0,29,18990.0,18990.0,18985.0,18985.0,58,-28,18985,13,18990,28
2017-01-25 11:34:00,11:34:07,11:34:57,34963,35051,18985.0,22,18990.0,27,18985.0,18985.0,18980.0,18985.0,44,-22,18980,35,18985,11
2017-01-25 11:35:00,11:35:05,11:35:54,35067,35192,18980.0,35,18985.0,14,18985.0,18985.0,18975.0,18975.0,87,-29,18970,42,18975,6
2017-01-25 11:36:00,11:36:14,11:36:51,35199,35263,18970.0,42,18975.0,10,18975.0,18980.0,18975.0,18980.0,21,21,18975,29,18980,3
2017-01-25 11:37:00,11:37:01,11:37:16,35277,35311,18975.0,28,18980.0,5,18980.0,18985.0,18980.0,18985.0,27,26,18980,22,18985,12
2017-01-25 11:38:00,11:38:07,11:38:07,35353,35383,18980.0,19,18985.0,22,18980.0,18980.0,18975.0,18975.0,38,-38,18975,19,18980,20
2017-01-25 11:39:00,11:39:18,11:39:57,35409,35494,18975.0,15,18980.0,25,18975.0,18980.0,18975.0,18980.0,70,36,18975,34,18980,5
2017-01-25 11:40:00,11:40:00,11:40:59,35497,35664,18975.0,30,18980.0,7,18980.0,18990.0,18980.0,18990.0,86,-18,18990,22,18995,21
2017-01-25 11:41:00,11:41:19,11:41:44,35689,35749,18990.0,27,18995.0,14,18995.0,18995.0,18995.0,18995.0,24,-6,18990,27,18995,21
2017-01-25 11:42:00,11:42:00,11:42:53,35762,35823,18990.0,32,18995.0,22,18995.0,18995.0,18995.0,18995.0,40,40,18990,31,18995,8
2017-01-25 11:43:00,11:43:11,11:43:51,35846,36052,18990.0,33,18995.0,3,18995.0,19010.0,18995.0,19010.0,170,79,19005,30,19010,18
2017-01-25 11:44:00,11:44:02,11:44:58,36067,36233,19005.0,54,19010.0,11,19010.0,19010.0,19000.0,19005.0,158,-92,19000,30,19005,26
2017-01-25 11:45:00,11:45:03,11:45:47,36240,36312,19000.0,29,19005.0,20,19000.0,19005.0,19000.0,19000.0,43,-15,19000,6,19005,47
2017-01-25 11:46:00,11:46:06,11:46:48,36323,36378,19000.0,9,19005.0,47,19000.0,19000.0,19000.0,19000.0,36,-36,18995,39,19000,26
2017-01-25 11:47:00,11:47:26,11:47:53,36407,36491,18995.0,34,19000.0,25,19000.0,19005.0,19000.0,19000.0,87,77,18995,40,19005,44
2017-01-25 11:48:00,11:48:32,11:48:54,36509,36534,19000.0,16,19005.0,40,19000.0,19000.0,19000.0,19000.0,11,-9,18995,28,19000,28
2017-01-25 11:49:00,11:49:08,11:49:39,36541,36593,18995.0,30,19000.0,32,18995.0,18995.0,18995.0,18995.0,41,-3,18995,5,19000,39
2017-01-25 11:50:00,11:50:09,11:50:56,36613,36696,18995.0,22,19000.0,39,18995.0,18995.0,18990.0,18990.0,51,-51,18985,28,18990,23
2017-01-25 11:51:00,11:51:07,11:51:48,36718,36799,18985.0,11,18990.0,37,18985.0,18985.0,18985.0,18985.0,57,27,18985,10,18990,32
2017-01-25 11:52:00,11:52:01,11:52:54,36811,36973,18985.0,20,18990.0,33,18990.0,19005.0,18990.0,19005.0,137,131,19000,33,19005,1
2017-01-25 11:53:00,11:53:06,11:53:46,36990,37147,19000.0,32,19005.0,14,19005.0,19005.0,19000.0,19000.0,134,-26,18995,26,19000,11
2017-01-25 11:54:00,11:54:03,11:54:43,37165,37369,18995.0,24,19000.0,20,18995.0,19010.0,18995.0,19010.0,250,168,19005,34,19010,7
2017-01-25 11:55:00,11:55:00,11:55:39,37396,37506,19005.0,31,19010.0,28,19010.0,19010.0,18995.0,18995.0,129,-109,18990,34,18995,6
2017-01-25 11:56:00,11:56:31,11:56:40,37554,37588,18990.0,32,18995.0,24,18990.0,18995.0,18990.0,18995.0,24,20,18995,8,19000,37
2017-01-25 11:57:00,11:57:00,11:57:49,37605,37773,18995.0,29,19000.0,17,19000.0,19000.0,18990.0,18995.0,138,-10,18990,26,18995,17
2017-01-25 11:58:00,11:58:38,11:58:42,37802,37834,18990.0,25,18995.0,31,18995.0,18995.0,18995.0,18995.0,41,41,18990,31,18995,4
2017-01-25 11:59:00,11:59:05,11:59:05,37845,37845,18990.0,19,18995.0,61,18995.0,18995.0,18995.0,18995.0,1,1,18990,21,18995,59
2017-01-25 12:00:00,12:00:06,12:00:49,37877,38048,18990.0,31,18995.0,66,18995.0,18995.0,18975.0,18980.0,167,-97,18975,24,18980,10
2017-01-25 12:01:00,12:01:10,12:01:28,38087,38151,18975.0,18,18980.0,31,18975.0,18975.0,18970.0,18975.0,68,-10,18970,29,18975,18
2017-01-25 12:02:00,12:02:36,12:02:46,38192,38204,18970.0,35,18975.0,22,18970.0,18970.0,18970.0,18970.0,5,-5,18970,29,18975,30
2017-01-25 12:03:00,12:03:06,12:03:37,38226,38322,18970.0,31,18975.0,30,18975.0,18980.0,18975.0,18980.0,87,77,18980,15,18985,36
2017-01-25 12:04:00,12:04:18,12:04:59,38359,38388,18980.0,33,18985.0,18,18980.0,18985.0,18980.0,18985.0,6,2,18980,34,18985,16
2017-01-25 12:05:00,12:05:06,12:05:06,38396,38396,18980.0,33,18985.0,23,18985.0,18985.0,18985.0,18985.0,1,1,18980,32,18985,22
2017-01-25 12:06:00,12:06:06,12:06:06,38426,38426,18980.0,32,18985.0,20,18985.0,18985.0,18985.0,18985.0,1,1,18980,34,18985,19
2017-01-25 12:07:00,12:07:06,12:07:06,38442,38442,18980.0,35,18985.0,16,18985.0,18985.0,18985.0,18985.0,1,1,18980,34,18985,15
2017-01-25 12:08:00,12:08:00,12:08:50,38456,38595,18980.0,30,18985.0,21,18985.0,18985.0,18975.0,18985.0,141,-9,18980,24,18985,13
2017-01-25 12:09:00,12:09:15,12:09:51,38603,38637,18980.0,30,18985.0,5,18985.0,18985.0,18985.0,18985.0,18,-8,18980,37,18985,6
2017-01-25 12:10:00,12:10:22,12:10:31,38654,38708,18980.0,42,18985.0,21,18980.0,18980.0,18980.0,18980.0,68,-68,18975,44,18980,21
2017-01-25 12:11:00,12:11:45,12:11:45,38747,38758,18975.0,52,18980.0,16,18980.0,18980.0,18980.0,18980.0,31,31,18980,23,18985,20
2017-01-25 12:12:00,12:12:03,12:12:40,38772,38839,18980.0,40,18985.0,9,18985.0,18985.0,18985.0,18985.0,26,19,18980,39,18990,43
2017-01-25 12:13:00,12:13:00,12:13:00,0,0,0.0,0,0.0,0,18985.0,18985.0,18985.0,18985.0,0,0,0,0,0,0
2017-01-25 12:14:00,12:14:02,12:14:29,38888,38965,18980.0,37,18985.0,17,18985.0,18985.0,18975.0,18980.0,94,-36,18975,41,18980,7
2017-01-25 12:15:00,12:15:13,12:15:57,38977,39050,18975.0,42,18980.0,13,18980.0,18995.0,18980.0,18995.0,49,47,18985,34,18995,35
2017-01-25 12:16:00,12:16:00,12:16:06,39056,39069,18985.0,29,18990.0,9,18990.0,18990.0,18985.0,18985.0,11,3,18980,32,18985,26
2017-01-25 12:17:00,12:17:05,12:17:40,39107,39161,18980.0,27,18985.0,29,18985.0,18990.0,18985.0,18990.0,40,40,18985,42,18990,13
2017-01-25 12:18:00,12:18:21,12:18:22,39182,39197,18985.0,22,18990.0,32,18985.0,18985.0,18985.0,18985.0,21,5,18985,8,18990,35
2017-01-25 12:19:00,12:19:00,12:19:00,0,0,0.0,0,0.0,0,18985.0,18985.0,18985.0,18985.0,0,0,0,0,0,0
2017-01-25 12:20:00,12:20:05,12:20:58,39227,39262,18985.0,28,18990.0,31,18990.0,18990.0,18985.0,18985.0,29,-7,18980,41,18985,11
2017-01-25 12:21:00,12:21:00,12:21:59,39265,39306,18980.0,42,18985.0,13,18985.0,18985.0,18985.0,18985.0,32,6,18985,42,18985,11
2017-01-25 12:22:00,12:22:00,12:22:52,39308,39531,18985.0,42,18990.0,42,18985.0,18990.0,18970.0,18975.0,248,-74,18975,16,18980,47
2017-01-25 12:23:00,12:23:03,12:23:55,39543,39655,18975.0,34,18980.0,40,18980.0,18980.0,18975.0,18980.0,154,16,18980,1,18980,6
2017-01-25 12:24:00,12:24:04,12:24:52,39664,39736,18975.0,44,18980.0,8,18980.0,18985.0,18980.0,18985.0,57,49,18985,23,18990,47
2017-01-25 12:25:00,12:25:16,12:25:32,39745,39769,18985.0,30,18990.0,52,18985.0,18985.0,18985.0,18985.0,50,-50,18980,30,18985,79
2017-01-25 12:26:00,12:26:16,12:26:17,39786,39799,18980.0,30,18985.0,94,18980.0,18980.0,18980.0,18980.0,17,-17,18980,11,18985,95
2017-01-25 12:27:00,12:27:09,12:27:26,39820,39835,18980.0,27,18985.0,94,18985.0,18985.0,18985.0,18985.0,31,31,18980,48,18985,60
2017-01-25 12:28:00,12:28:01,12:28:47,39840,39857,18980.0,46,18985.0,60,18985.0,18985.0,18980.0,18985.0,17,5,18980,45,18985,53
2017-01-25 12:29:00,12:29:10,12:29:21,39862,39951,18980.0,47,18985.0,57,18985.0,18990.0,18985.0,18990.0,132,56,18990,15,18995,41
2017-01-25 12:30:00,12:30:02,12:30:57,39982,40026,18990.0,19,18995.0,43,18990.0,18990.0,18990.0,18990.0,18,-10,18990,7,18995,41
2017-01-25 12:31:00,12:31:08,12:31:50,40041,40136,18990.0,4,18995.0,41,18990.0,18990.0,18985.0,18985.0,69,-49,18985,1,18990,44
2017-01-25 12:32:00,12:32:03,12:32:54,40149,40270,18985.0,6,18990.0,44,18985.0,18995.0,18985.0,18995.0,96,59,18995,7,19000,44
2017-01-25 12:33:00,12:33:04,12:33:33,40281,40320,18995.0,28,19000.0,40,18995.0,18995.0,18995.0,18995.0,30,-30,18995,26,19000,40
2017-01-25 12:34:00,12:34:00,12:34:50,40340,40377,18995.0,27,19000.0,41,19000.0,19000.0,19000.0,19000.0,26,26,18995,30,19000,29
2017-01-25 12:35:00,12:35:06,12:35:55,40399,40443,18995.0,20,19000.0,48,18995.0,19000.0,18995.0,18995.0,25,3,18990,41,18995,2
2017-01-25 12:36:00,12:36:00,12:36:00,0,0,0.0,0,0.0,0,18995.0,18995.0,18995.0,18995.0,0,0,0,0,0,0
2017-01-25 12:37:00,12:37:05,12:37:54,40483,40566,18990.0,32,18995.0,29,18995.0,19000.0,18995.0,18995.0,58,36,18995,5,19000,39
2017-01-25 12:38:00,12:38:53,12:38:59,40617,40649,18995.0,23,19000.0,31,18995.0,18995.0,18995.0,18995.0,24,-16,18995,1,18995,1
2017-01-25 12:39:00,12:39:00,12:39:59,40651,40846,18995.0,1,19000.0,41,18995.0,18995.0,18990.0,18995.0,181,-125,18995,14,19000,31
2017-01-25 12:40:00,12:40:00,12:40:22,40849,40901,18995.0,14,19000.0,31,18995.0,18995.0,18995.0,18995.0,54,-54,18990,36,18995,13
2017-01-25 12:41:00,12:41:11,12:41:58,40939,40988,18990.0,31,18995.0,28,18990.0,18995.0,18990.0,18990.0,22,16,18990,33,18995,16
2017-01-25 12:42:00,12:42:06,12:42:06,40998,40998,18990.0,33,18995.0,19,18995.0,18995.0,18995.0,18995.0,1,1,18990,32,18995,20
2017-01-25 12:43:00,12:43:04,12:43:33,41016,41157,18990.0,32,18995.0,32,18995.0,18995.0,18990.0,18990.0,115,5,18985,43,18990,11
2017-01-25 12:44:00,12:44:00,12:44:00,0,0,0.0,0,0.0,0,18990.0,18990.0,18990.0,18990.0,0,0,0,0,0,0
2017-01-25 12:45:00,12:45:01,12:45:55,41211,41253,18985.0,35,18990.0,32,18990.0,18990.0,18985.0,18985.0,34,-32,18985,5,18990,43
2017-01-25 12:46:00,12:46:35,12:46:35,41277,41278,18985.0,35,18990.0,32,18990.0,18990.0,18990.0,18990.0,3,3,18985,36,18990,28
2017-01-25 12:47:00,12:47:00,12:47:07,41284,41291,18985.0,36,18990.0,28,18990.0,18990.0,18985.0,18985.0,3,1,18985,34,18990,26
2017-01-25 12:48:00,12:48:03,12:48:30,41315,41331,18985.0,33,18990.0,41,18990.0,18990.0,18990.0,18990.0,2,2,18985,31,18990,26
2017-01-25 12:49:00,12:49:02,12:49:02,41342,41342,18985.0,31,18990.0,25,18990.0,18990.0,18990.0,18990.0,1,1,18985,30,18990,24
2017-01-25 12:50:00,12:50:06,12:50:06,41366,41366,18985.0,32,18990.0,35,18990.0,18990.0,18990.0,18990.0,1,1,18985,31,18990,34
2017-01-25 12:51:00,12:51:01,12:51:09,41381,41388,18985.0,36,18990.0,26,18990.0,18990.0,18990.0,18990.0,2,2,18985,33,18990,24
2017-01-25 12:52:00,12:52:05,12:52:57,41409,41473,18985.0,36,18990.0,31,18990.0,18990.0,18985.0,18985.0,83,81,18985,37,18990,29
2017-01-25 12:53:00,12:53:08,12:53:48,41481,41528,18985.0,38,18990.0,34,18990.0,18990.0,18990.0,18990.0,52,52,18985,37,18990,31
2017-01-25 12:54:00,12:54:03,12:54:25,41539,41579,18985.0,39,18990.0,36,18985.0,18990.0,18985.0,18985.0,32,-28,18985,32,18990,35
2017-01-25 12:55:00,12:55:02,12:55:39,41602,41687,18985.0,32,18990.0,32,18990.0,18995.0,18990.0,18990.0,109,95,18990,50,18995,37
2017-01-25 12:56:00,12:56:21,12:56:21,41718,41724,18990.0,61,18995.0,33,18995.0,18995.0,18995.0,18995.0,30,30,18995,35,19000,51
2017-01-25 12:57:00,12:57:02,12:57:56,41742,41771,18995.0,59,19000.0,51,19000.0,19000.0,19000.0,19000.0,37,37,19000,85,19005,32
2017-01-25 12:58:00,12:58:01,12:58:55,41782,41858,19000.0,83,19005.0,35,19005.0,19005.0,19000.0,19000.0,95,-19,19000,31,19005,30
2017-01-25 12:59:00,12:59:06,12:59:59,41870,41952,19000.0,37,19005.0,26,19005.0,19005.0,19005.0,19005.0,55,35,19000,43,19005,2
2017-01-25 13:00:00,13:00:00,13:00:51,41955,42004,19000.0,43,19005.0,2,19005.0,19010.0,19005.0,19010.0,18,5,19005,32,19010,49
2017-01-25 13:01:00,13:01:12,13:01:53,42027,42177,19005.0,36,19010.0,40,19005.0,19015.0,19005.0,19010.0,167,31,19005,42,19015,47
2017-01-25 13:02:00,13:02:30,13:02:53,42207,42285,19005.0,25,19010.0,49,19005.0,19005.0,19005.0,19005.0,67,-50,19000,38,19005,23
2017-01-25 13:03:00,13:03:13,13:03:55,42305,42433,19000.0,36,19005.0,30,19000.0,19000.0,18995.0,19000.0,140,-140,19000,9,19005,31
2017-01-25 13:04:00,13:04:24,13:04:57,42464,42507,19000.0,31,19005.0,26,19005.0,19005.0,19000.0,19005.0,44,42,19000,35,19005,23
2017-01-25 13:05:00,13:05:16,13:05:59,42516,42639,19000.0,37,19005.0,24,19000.0,19000.0,19000.0,19000.0,107,-23,19000,16,19000,14
2017-01-25 13:06:00,13:06:00,13:06:58,42641,42719,19000.0,16,19005.0,50,19000.0,19005.0,19000.0,19005.0,79,47,19000,40,19005,11
2017-01-25 13:07:00,13:07:05,13:07:45,42724,42789,19000.0,40,19005.0,14,19005.0,19010.0,19005.0,19010.0,40,22,19005,23,19010,44
2017-01-25 13:08:00,13:08:10,13:08:10,42813,42813,19005.0,29,19010.0,38,19010.0,19010.0,19010.0,19010.0,1,1,19005,31,19010,39
2017-01-25 13:09:00,13:09:03,13:09:58,42840,42914,19005.0,23,19010.0,41,19010.0,19010.0,19005.0,19005.0,49,-5,19005,47,19010,27
2017-01-25 13:10:00,13:10:37,13:10:37,42942,42942,19005.0,53,19010.0,28,19005.0,19005.0,19005.0,19005.0,1,-1,19005,52,19010,27
2017-01-25 13:11:00,13:11:08,13:11:36,42954,43040,19005.0,48,19010.0,36,19010.0,19010.0,19005.0,19005.0,93,-31,19005,27,19010,39
2017-01-25 13:12:00,13:12:37,13:12:57,43065,43074,19005.0,51,19010.0,38,19010.0,19010.0,19005.0,19005.0,2,0,19005,53,19010,28
2017-01-25 13:13:00,13:13:00,13:13:04,43079,43080,19005.0,53,19010.0,31,19010.0,19010.0,19010.0,19010.0,2,2,19005,51,19010,25
2017-01-25 13:14:00,13:14:09,13:14:58,43095,43215,19005.0,61,19010.0,22,19010.0,19010.0,19005.0,19005.0,113,53,19005,42,19010,16
2017-01-25 13:15:00,13:15:04,13:15:55,43218,43317,19005.0,43,19010.0,18,19005.0,19005.0,19005.0,19005.0,68,-68,19005,27,19010,34
2017-01-25 13:16:00,13:16:32,13:16:32,43343,43343,19005.0,26,19010.0,35,19005.0,19005.0,19005.0,19005.0,1,-1,19005,29,19010,39
2017-01-25 13:17:00,13:17:02,13:17:59,43364,43569,19005.0,28,19010.0,38,19010.0,19020.0,19010.0,19020.0,198,128,19015,37,19020,40
2017-01-25 13:18:00,13:18:02,13:18:47,43576,43689,19015.0,29,19020.0,41,19020.0,19020.0,19015.0,19015.0,106,-12,19010,53,19015,33
2017-01-25 13:19:00,13:19:02,13:19:54,43692,43910,19010.0,53,19015.0,33,19015.0,19015.0,18990.0,18990.0,267,-192,18990,40,18995,19
2017-01-25 13:20:00,13:20:00,13:20:53,43918,44062,18990.0,34,18995.0,22,18990.0,19000.0,18990.0,18995.0,84,-4,18995,9,19000,49
2017-01-25 13:21:00,13:21:10,13:21:57,44074,44131,18995.0,34,19000.0,35,19000.0,19000.0,18995.0,18995.0,13,11,18995,34,19000,34
2017-01-25 13:22:00,13:22:00,13:22:53,44135,44322,18995.0,37,19000.0,34,18995.0,18995.0,18990.0,18995.0,172,-73,18990,34,18995,16
2017-01-25 13:23:00,13:23:08,13:23:56,44332,44469,18990.0,40,18995.0,25,18995.0,18995.0,18985.0,18985.0,140,-13,18980,40,18985,9
2017-01-25 13:24:00,13:24:11,13:24:52,44482,44554,18980.0,41,18985.0,23,18980.0,18985.0,18980.0,18985.0,78,4,18985,5,18990,94
2017-01-25 13:25:00,13:25:00,13:25:59,44562,44722,18985.0,4,18990.0,94,18985.0,18990.0,18980.0,18985.0,105,-1,18980,47,18990,78
2017-01-25 13:26:00,13:26:00,13:26:58,44726,44801,18980.0,47,18985.0,6,18985.0,18990.0,18980.0,18985.0,109,-67,18980,48,18985,3
2017-01-25 13:27:00,13:27:01,13:27:58,44806,45138,18980.0,48,18985.0,12,18985.0,19010.0,18985.0,19010.0,508,172,19005,58,19010,56
2017-01-25 13:28:00,13:28:03,13:28:47,45144,45324,19005.0,55,19010.0,56,19010.0,19015.0,19010.0,19015.0,204,14,19010,57,19020,54
2017-01-25 13:29:00,13:29:00,13:29:44,45345,45464,19015.0,26,19020.0,45,19020.0,19020.0,19015.0,19020.0,84,14,19015,37,19020,41
2017-01-25 13:30:00,13:30:01,13:30:33,45473,45510,19015.0,81,19020.0,47,19020.0,19020.0,19020.0,19020.0,18,18,19015,92,19020,23
2017-01-25 13:31:00,13:31:01,13:31:57,45525,45611,19015.0,85,19020.0,31,19020.0,19020.0,19015.0,19015.0,109,-39,19010,58,19015,33
2017-01-25 13:32:00,13:32:08,13:32:58,45626,45993,19010.0,60,19015.0,36,19015.0,19025.0,19010.0,19010.0,513,-149,19005,31,19010,20
2017-01-25 13:33:00,13:33:00,13:33:58,46004,46300,19005.0,28,19010.0,27,19010.0,19010.0,19000.0,19000.0,304,38,19000,16,19005,59
2017-01-25 13:34:00,13:34:00,13:34:57,46307,46475,19000.0,23,19005.0,60,19005.0,19015.0,19000.0,19015.0,180,38,19010,57,19015,25
2017-01-25 13:35:00,13:35:02,13:35:53,46482,46526,19010.0,55,19015.0,30,19010.0,19015.0,19010.0,19010.0,16,12,19010,49,19015,39
2017-01-25 13:36:00,13:36:06,13:36:48,46538,46618,19010.0,31,19015.0,60,19010.0,19010.0,19005.0,19010.0,83,-55,19005,44,19010,41
2017-01-25 13:37:00,13:37:07,13:37:57,46626,46758,19005.0,44,19010.0,44,19010.0,19020.0,19010.0,19020.0,122,88,19015,81,19020,20
2017-01-25 13:38:00,13:38:02,13:38:54,46765,46981,19015.0,67,19020.0,48,19015.0,19025.0,19010.0,19015.0,371,-51,19010,43,19015,69
2017-01-25 13:39:00,13:39:00,13:39:59,46989,47103,19010.0,42,19015.0,75,19015.0,19015.0,19010.0,19015.0,95,-27,19010,74,19015,24
2017-01-25 13:40:00,13:40:01,13:40:59,47112,47234,19010.0,83,19015.0,26,19015.0,19020.0,19010.0,19015.0,95,21,19010,82,19015,12
2017-01-25 13:41:00,13:41:01,13:41:50,47238,47346,19010.0,81,19015.0,19,19015.0,19020.0,19010.0,19015.0,87,63,19015,48,19020,53
2017-01-25 13:42:00,13:42:01,13:42:46,47351,47410,19015.0,48,19020.0,53,19015.0,19020.0,19015.0,19020.0,24,20,19015,49,19020,47
2017-01-25 13:43:00,13:43:03,13:43:59,47423,47546,19015.0,51,19020.0,47,19020.0,19025.0,19015.0,19020.0,133,-11,19020,26,19025,65
2017-01-25 13:44:00,13:44:17,13:44:55,47564,47625,19020.0,33,19025.0,66,19025.0,19025.0,19020.0,19025.0,43,-19,19020,60,19025,40
2017-01-25 13:45:00,13:45:00,13:45:17,47633,47669,19020.0,11,19025.0,69,19020.0,19025.0,19020.0,19025.0,34,12,19020,78,19025,33
2017-01-25 13:46:00,13:46:01,13:46:55,47693,47750,19020.0,82,19025.0,37,19025.0,19025.0,19020.0,19020.0,14,4,19020,48,19025,86
2017-01-25 13:47:00,13:47:02,13:47:56,47754,47856,19020.0,48,19025.0,80,19025.0,19030.0,19020.0,19025.0,57,27,19025,57,19030,64
2017-01-25 13:48:00,13:48:04,13:48:59,47861,47938,19025.0,58,19030.0,62,19030.0,19030.0,19020.0,19025.0,54,-46,19020,79,19025,44
2017-01-25 13:49:00,13:49:10,13:49:47,47945,47981,19020.0,79,19025.0,31,19020.0,19025.0,19020.0,19025.0,15,5,19020,70,19025,27
2017-01-25 13:50:00,13:50:00,13:50:35,47992,48037,19020.0,68,19025.0,52,19025.0,19030.0,19025.0,19025.0,29,19,19025,55,19030,59
2017-01-25 13:51:00,13:51:00,13:51:57,48054,48150,19025.0,88,19030.0,50,19025.0,19030.0,19025.0,19025.0,53,27,19025,79,19030,35
2017-01-25 13:52:00,13:52:00,13:52:52,48157,48306,19025.0,77,19030.0,54,19030.0,19030.0,19010.0,19010.0,166,-144,19010,87,19015,48
2017-01-25 13:53:00,13:53:00,13:53:49,48327,48533,19010.0,74,19015.0,57,19010.0,19015.0,19005.0,19010.0,237,16,19005,97,19010,5
2017-01-25 13:54:00,13:54:07,13:54:54,48557,48660,19005.0,98,19010.0,11,19005.0,19020.0,19005.0,19020.0,121,95,19015,62,19020,49
2017-01-25 13:55:00,13:55:01,13:55:59,48672,48820,19015.0,69,19020.0,40,19020.0,19025.0,19015.0,19015.0,102,-18,19015,96,19020,27
2017-01-25 13:56:00,13:56:06,13:56:59,48828,48975,19015.0,98,19020.0,32,19020.0,19020.0,19010.0,19015.0,186,-58,19015,38,19020,97
2017-01-25 13:57:00,13:57:04,13:57:57,48981,49085,19015.0,42,19020.0,100,19020.0,19020.0,19015.0,19015.0,72,-34,19015,47,19020,136
2017-01-25 13:58:00,13:58:03,13:58:58,49093,49243,19015.0,81,19020.0,137,19015.0,19020.0,19010.0,19010.0,145,-103,19010,101,19015,26
2017-01-25 13:59:00,13:59:00,13:59:59,49247,49745,19010.0,91,19015.0,26,19010.0,19035.0,19010.0,19030.0,962,308,19025,58,19030,32
2017-01-25 14:00:00,14:00:00,14:00:59,49746,50692,19025.0,95,19030.0,3,19035.0,19050.0,19025.0,19050.0,2008,756,19045,46,19050,63
2017-01-25 14:01:00,14:01:00,14:01:59,50693,51075,19045.0,3,19050.0,60,19045.0,19055.0,19045.0,19045.0,587,87,19045,18,19050,119
2017-01-25 14:02:00,14:02:00,14:02:59,51079,51351,19045.0,20,19050.0,119,19045.0,19055.0,19040.0,19050.0,411,29,19045,113,19050,54
2017-01-25 14:03:00,14:03:00,14:03:55,51354,51481,19045.0,113,19050.0,54,19045.0,19050.0,19045.0,19050.0,173,101,19050,20,19055,99
2017-01-25 14:04:00,14:04:09,14:04:59,51514,51664,19050.0,74,19055.0,83,19050.0,19055.0,19045.0,19050.0,183,-55,19050,32,19055,112
2017-01-25 14:05:00,14:05:02,14:05:57,51670,51831,19050.0,32,19055.0,112,19050.0,19055.0,19045.0,19050.0,193,88,19050,128,19055,93
2017-01-25 14:06:00,14:06:02,14:06:59,51840,52186,19050.0,118,19055.0,75,19055.0,19065.0,19055.0,19060.0,466,206,19060,69,19065,86
2017-01-25 14:07:00,14:07:03,14:07:57,52196,52498,19060.0,70,19065.0,60,19065.0,19075.0,19065.0,19065.0,424,244,19065,74,19070,18
2017-01-25 14:08:00,14:08:03,14:08:48,52508,52658,19065.0,84,19070.0,24,19065.0,19070.0,19065.0,19065.0,165,39,19065,46,19070,113
2017-01-25 14:09:00,14:09:00,14:09:59,52670,52945,19065.0,47,19070.0,115,19065.0,19070.0,19055.0,19060.0,450,-132,19055,46,19060,13
