,ST,ET,sidx,eidx,bB,bBS,bA,bAS,O,H,L,C,V,OF,eB,eBS,eA,eAS
2017-02-22 08:00:00,08:00:00,08:00:58,1876,2737,19420.0,40,19425.0,40,19425.0,19425.0,19390.0,19400.0,1289,-407,19400,11,19405,39
2017-02-22 08:01:00,08:01:00,08:01:54,2742,3082,19400.0,10,19405.0,34,19400.0,19400.0,19390.0,19395.0,510,262,19395,47,19400,34
2017-02-22 08:02:00,08:02:00,08:02:55,3094,3291,19395.0,56,19400.0,44,19395.0,19400.0,19395.0,19395.0,225,207,19395,48,19400,24
2017-02-22 08:03:00,08:03:00,08:03:44,3295,3476,19395.0,48,19400.0,8,19400.0,19410.0,19400.0,19400.0,175,129,19400,39,19405,34
2017-02-22 08:04:00,08:04:04,08:04:34,3498,3686,19400.0,44,19405.0,35,19400.0,19400.0,19390.0,19390.0,284,-59,19390,49,19395,58
2017-02-22 08:05:00,08:05:03,08:05:46,3702,3879,19390.0,49,19395.0,84,19395.0,19395.0,19390.0,19395.0,268,-112,19390,55,19395,48
2017-02-22 08:06:00,08:06:00,08:06:44,3893,4159,19390.0,53,19395.0,57,19390.0,19400.0,19390.0,19400.0,434,288,19395,36,19400,35
2017-02-22 08:07:00,08:07:10,08:07:57,4184,4358,19395.0,24,19400.0,48,19395.0,19400.0,19390.0,19395.0,213,89,19395,26,19400,35
2017-02-22 08:08:00,08:08:00,08:08:56,4366,4634,19395.0,14,19400.0,42,19395.0,19410.0,19395.0,19405.0,291,199,19405,6,19410,48
2017-02-22 08:09:00,08:09:02,08:09:54,4650,5163,19405.0,21,19410.0,41,19410.0,19410.0,19380.0,19385.0,732,-355,19380,32,19385,28
2017-02-22 08:10:00,08:10:00,08:10:59,5172,5609,19380.0,27,19385.0,31,19380.0,19385.0,19370.0,19380.0,542,254,19375,35,19380,20
2017-02-22 08:11:00,08:11:01,08:11:51,5617,5746,19375.0,30,19380.0,22,19380.0,19380.0,19380.0,19380.0,109,109,19375,33,19380,4
2017-02-22 08:12:00,08:12:14,08:12:57,5774,5929,19375.0,26,19380.0,48,19375.0,19375.0,19370.0,19375.0,161,45,19370,33,19375,23
2017-02-22 08:13:00,08:13:16,08:13:57,5952,6016,19370.0,31,19375.0,26,19375.0,19380.0,19370.0,19370.0,56,14,19370,30,19375,38
2017-02-22 08:14:00,08:14:05,08:14:59,6024,6275,19370.0,31,19375.0,41,19370.0,19370.0,19360.0,19365.0,241,-83,19365,38,19370,46
2017-02-22 08:15:00,08:15:17,08:15:59,6298,6503,19365.0,81,19370.0,43,19370.0,19370.0,19360.0,19370.0,259,-7,19365,38,19370,2
2017-02-22 08:16:00,08:16:26,08:16:26,6533,6558,19365.0,40,19370.0,22,19365.0,19370.0,19365.0,19370.0,31,-29,19365,29,19370,25
2017-02-22 08:17:00,08:17:20,08:17:55,6603,6724,19365.0,40,19370.0,22,19365.0,19370.0,19365.0,19365.0,149,79,19365,24,19370,44
2017-02-22 08:18:00,08:18:01,08:18:58,6732,6836,19365.0,19,19370.0,51,19365.0,19375.0,19365.0,19370.0,142,66,19370,16,19375,45
2017-02-22 08:19:00,08:19:21,08:19:45,6852,6868,19365.0,59,19370.0,36,19370.0,19370.0,19365.0,19365.0,17,15,19365,62,19370,24
2017-02-22 08:20:00,08:20:00,08:20:54,6873,7190,19365.0,63,19370.0,30,19365.0,19365.0,19350.0,19355.0,433,-151,19355,42,19360,65
2017-02-22 08:21:00,08:21:00,08:21:59,7198,7345,19355.0,45,19360.0,64,19355.0,19355.0,19350.0,19355.0,119,-39,19355,16,19360,114
2017-02-22 08:22:00,08:22:01,08:22:53,7348,7432,19355.0,16,19360.0,114,19355.0,19365.0,19355.0,19365.0,82,62,19360,44,19365,99
2017-02-22 08:23:00,08:23:04,08:23:51,7436,7760,19360.0,45,19365.0,100,19360.0,19370.0,19345.0,19345.0,494,-185,19345,27,19350,32
2017-02-22 08:24:00,08:24:03,08:24:48,7783,7969,19345.0,51,19350.0,27,19350.0,19360.0,19350.0,19360.0,175,133,19355,51,19360,11
2017-02-22 08:25:00,08:25:14,08:25:56,8005,8484,19355.0,104,19360.0,23,19360.0,19370.0,19345.0,19345.0,668,-374,19340,45,19345,20
2017-02-22 08:26:00,08:26:02,08:26:33,8495,8670,19340.0,39,19345.0,57,19345.0,19355.0,19345.0,19355.0,231,31,19350,36,19355,10
2017-02-22 08:27:00,08:27:01,08:27:20,8705,8759,19350.0,32,19355.0,11,19350.0,19360.0,19350.0,19360.0,35,33,19355,20,19360,5
2017-02-22 08:28:00,08:28:04,08:28:37,8792,8863,19355.0,20,19360.0,37,19355.0,19355.0,19355.0,19355.0,74,-46,19350,75,19355,32
2017-02-22 08:29:00,08:29:14,08:29:48,8877,8971,19350.0,74,19355.0,41,19355.0,19355.0,19355.0,19355.0,96,18,19350,76,19360,43
2017-02-22 08:30:00,08:30:23,08:30:52,9014,9153,19355.0,33,19360.0,56,19360.0,19360.0,19355.0,19355.0,125,-5,19350,80,19360,27
2017-02-22 08:31:00,08:31:05,08:31:42,9161,9232,19350.0,80,19355.0,8,19350.0,19355.0,19350.0,19355.0,26,2,19355,7,19360,29
2017-02-22 08:32:00,08:32:02,08:32:46,9245,9373,19355.0,28,19360.0,20,19360.0,19365.0,19360.0,19365.0,112,74,19360,41,19365,26
2017-02-22 08:33:00,08:33:00,08:33:40,9377,9476,19360.0,41,19365.0,28,19360.0,19370.0,19360.0,19365.0,50,-18,19365,29,19370,36
2017-02-22 08:34:00,08:34:14,08:34:57,9491,9841,19365.0,38,19370.0,39,19370.0,19395.0,19365.0,19390.0,487,429,19390,16,19395,41
2017-02-22 08:35:00,08:35:11,08:35:59,9859,10174,19390.0,34,19395.0,43,19390.0,19395.0,19375.0,19380.0,346,-8,19380,39,19390,30
2017-02-22 08:36:00,08:36:00,08:36:59,10176,10367,19380.0,39,19385.0,21,19385.0,19395.0,19385.0,19385.0,200,-2,19385,13,19390,29
2017-02-22 08:37:00,08:37:01,08:37:38,10373,10422,19385.0,18,19390.0,29,19390.0,19390.0,19385.0,19385.0,15,7,19385,70,19390,33
2017-02-22 08:38:00,08:38:07,08:38:33,10432,10564,19385.0,71,19390.0,34,19385.0,19390.0,19385.0,19390.0,175,43,19385,32,19390,9
2017-02-22 08:39:00,08:39:05,08:39:45,10600,10667,19385.0,22,19390.0,34,19390.0,19390.0,19385.0,19390.0,48,-18,19385,14,19390,26
2017-02-22 08:40:00,08:40:06,08:40:55,10680,10767,19385.0,24,19390.0,35,19385.0,19390.0,19385.0,19385.0,56,18,19385,38,19390,30
2017-02-22 08:41:00,08:41:17,08:41:45,10793,10892,19385.0,12,19390.0,44,19385.0,19390.0,19385.0,19385.0,89,35,19385,30,19390,29
2017-02-22 08:42:00,08:42:00,08:42:59,10908,11076,19385.0,37,19390.0,26,19390.0,19395.0,19385.0,19385.0,171,-3,19380,35,19385,19
2017-02-22 08:43:00,08:43:02,08:43:58,11081,11237,19380.0,34,19385.0,23,19385.0,19390.0,19385.0,19390.0,172,-19,19385,32,19390,24
2017-02-22 08:44:00,08:44:07,08:44:51,11246,11308,19385.0,38,19390.0,25,19390.0,19390.0,19385.0,19385.0,48,8,19385,25,19390,43
2017-02-22 08:45:00,08:45:02,08:45:51,11316,11456,19385.0,20,19390.0,46,19385.0,19385.0,19370.0,19375.0,138,-76,19375,32,19380,67
2017-02-22 08:46:00,08:46:06,08:46:49,11465,11552,19375.0,32,19380.0,67,19375.0,19380.0,19375.0,19380.0,74,-12,19375,29,19380,18
2017-02-22 08:47:00,08:47:04,08:47:38,11564,11582,19375.0,25,19380.0,28,19380.0,19380.0,19375.0,19375.0,6,-2,19375,22,19380,34
2017-02-22 08:48:00,08:48:08,08:48:55,11598,11693,19375.0,20,19380.0,37,19375.0,19390.0,19375.0,19390.0,86,70,19385,55,19390,20
2017-02-22 08:49:00,08:49:09,08:49:58,11710,11824,19385.0,54,19390.0,35,19385.0,19390.0,19385.0,19385.0,105,91,19385,41,19390,37
2017-02-22 08:50:00,08:50:42,08:50:58,11846,11910,19385.0,43,19390.0,80,19390.0,19395.0,19390.0,19395.0,66,42,19395,24,19400,54
2017-02-22 08:51:00,08:51:19,08:51:59,11927,12063,19395.0,28,19400.0,60,19395.0,19395.0,19385.0,19390.0,164,-38,19390,29,19395,40
2017-02-22 08:52:00,08:52:00,08:52:31,12069,12145,19390.0,20,19395.0,46,19390.0,19395.0,19390.0,19395.0,59,17,19390,36,19400,66
2017-02-22 08:53:00,08:53:05,08:53:15,12162,12207,19390.0,16,19395.0,39,19390.0,19390.0,19390.0,19390.0,45,-36,19390,25,19395,26
2017-02-22 08:54:00,08:54:04,08:54:59,12247,12351,19390.0,39,19395.0,31,19390.0,19395.0,19390.0,19395.0,89,5,19395,22,19400,63
2017-02-22 08:55:00,08:55:00,08:55:44,12356,12526,19395.0,15,19400.0,64,19400.0,19400.0,19390.0,19395.0,195,53,19395,24,19400,36
2017-02-22 08:56:00,08:56:10,08:56:41,12546,12621,19395.0,36,19400.0,37,19395.0,19405.0,19395.0,19405.0,118,40,19400,31,19405,32
2017-02-22 08:57:00,08:57:02,08:57:45,12635,12769,19400.0,29,19405.0,37,19400.0,19400.0,19395.0,19395.0,138,-126,19395,26,19400,51
2017-02-22 08:58:00,08:58:08,08:58:59,12784,12936,19395.0,10,19400.0,53,19395.0,19395.0,19390.0,19390.0,148,-96,19385,55,19395,40
2017-02-22 08:59:00,08:59:28,08:59:50,12950,12962,19385.0,50,19390.0,38,19390.0,19390.0,19385.0,19385.0,4,-2,19385,44,19390,45
2017-02-22 09:00:00,09:00:04,09:00:39,12969,13077,19385.0,43,19390.0,44,19385.0,19385.0,19385.0,19385.0,85,-39,19385,30,19390,36
2017-02-22 09:01:00,09:01:28,09:01:28,13109,13109,19385.0,28,19390.0,41,19385.0,19385.0,19385.0,19385.0,3,-3,19385,22,19390,42
2017-02-22 09:02:00,09:02:06,09:02:51,13127,13204,19385.0,31,19390.0,43,19385.0,19385.0,19380.0,19385.0,44,-42,19380,51,19385,38
2017-02-22 09:03:00,09:03:05,09:03:56,13213,13276,19380.0,50,19385.0,37,19385.0,19385.0,19380.0,19380.0,48,8,19380,45,19385,33
2017-02-22 09:04:00,09:04:02,09:04:46,13283,13463,19380.0,45,19385.0,37,19380.0,19380.0,19365.0,19370.0,195,-1,19370,38,19375,27
2017-02-22 09:05:00,09:05:05,09:05:47,13484,13608,19370.0,29,19375.0,47,19375.0,19375.0,19365.0,19365.0,130,36,19365,50,19370,26
2017-02-22 09:06:00,09:06:03,09:06:48,13625,13713,19365.0,47,19370.0,42,19370.0,19370.0,19365.0,19370.0,103,97,19365,40,19370,23
2017-02-22 09:07:00,09:07:01,09:07:24,13720,13790,19365.0,42,19370.0,24,19370.0,19370.0,19365.0,19365.0,60,38,19365,37,19370,26
2017-02-22 09:08:00,09:08:00,09:08:52,13800,13868,19365.0,40,19370.0,23,19370.0,19370.0,19365.0,19365.0,40,28,19365,38,19370,28
2017-02-22 09:09:00,09:09:05,09:09:41,13884,13980,19365.0,42,19370.0,8,19370.0,19375.0,19365.0,19370.0,99,81,19370,27,19375,41
2017-02-22 09:10:00,09:10:04,09:10:55,13993,14103,19370.0,35,19375.0,42,19375.0,19375.0,19370.0,19370.0,115,-75,19365,43,19370,6
2017-02-22 09:11:00,09:11:03,09:11:55,14116,14229,19365.0,43,19370.0,7,19370.0,19380.0,19370.0,19380.0,81,59,19375,21,19380,45
2017-02-22 09:12:00,09:12:09,09:12:59,14239,14282,19375.0,21,19380.0,50,19375.0,19375.0,19370.0,19370.0,24,-10,19370,35,19375,29
2017-02-22 09:13:00,09:13:01,09:13:56,14285,14360,19370.0,35,19375.0,29,19370.0,19375.0,19370.0,19375.0,67,-3,19370,38,19375,26
2017-02-22 09:14:00,09:14:01,09:14:58,14363,14518,19370.0,38,19375.0,26,19375.0,19375.0,19365.0,19370.0,127,-26,19365,43,19375,39
2017-02-22 09:15:00,09:15:01,09:15:52,14523,14614,19365.0,43,19375.0,43,19370.0,19370.0,19365.0,19365.0,63,-28,19360,45,19365,22
2017-02-22 09:16:00,09:16:16,09:16:53,14629,14675,19360.0,45,19365.0,26,19360.0,19365.0,19360.0,19365.0,32,20,19365,11,19370,44
2017-02-22 09:17:00,09:17:04,09:17:55,14683,14720,19365.0,27,19370.0,32,19370.0,19370.0,19365.0,19365.0,8,-4,19365,41,19370,13
2017-02-22 09:18:00,09:18:03,09:18:44,14726,14764,19365.0,42,19370.0,14,19365.0,19375.0,19365.0,19370.0,22,14,19370,50,19375,30
2017-02-22 09:19:00,09:19:01,09:19:47,14770,14885,19370.0,53,19375.0,28,19370.0,19375.0,19365.0,19375.0,113,-55,19370,38,19375,25
2017-02-22 09:20:00,09:20:23,09:20:59,14929,15014,19370.0,41,19375.0,10,19370.0,19375.0,19370.0,19375.0,103,-39,19375,33,19380,58
2017-02-22 09:21:00,09:21:00,09:21:33,15017,15141,19375.0,33,19380.0,58,19375.0,19375.0,19370.0,19370.0,145,-119,19370,19,19375,35
2017-02-22 09:22:00,09:22:01,09:22:50,15157,15182,19370.0,33,19375.0,25,19370.0,19370.0,19370.0,19370.0,6,-6,19370,34,19375,20
2017-02-22 09:23:00,09:23:08,09:23:40,15191,15218,19370.0,35,19375.0,20,19370.0,19370.0,19370.0,19370.0,9,-9,19370,24,19375,31
2017-02-22 09:24:00,09:24:04,09:24:57,15232,15295,19370.0,34,19375.0,22,19370.0,19375.0,19370.0,19375.0,28,-18,19370,37,19375,27
2017-02-22 09:25:00,09:25:01,09:25:53,15299,15337,19370.0,37,19375.0,30,19370.0,19375.0,19370.0,19375.0,26,14,19375,31,19380,33
2017-02-22 09:26:00,09:26:08,09:26:57,15347,15374,19375.0,27,19380.0,43,19375.0,19375.0,19370.0,19370.0,25,-25,19370,27,19375,40
2017-02-22 09:27:00,09:27:03,09:27:46,15376,15410,19370.0,27,19375.0,43,19370.0,19370.0,19370.0,19370.0,18,-18,19370,22,19375,40
2017-02-22 09:28:00,09:28:01,09:28:55,15419,15551,19370.0,21,19375.0,40,19370.0,19375.0,19370.0,19375.0,131,-6,19370,49,19380,42
2017-02-22 09:29:00,09:29:25,09:29:59,15563,15604,19370.0,55,19375.0,18,19370.0,19375.0,19370.0,19375.0,28,1,19370,45,19375,18
2017-02-22 09:30:00,09:30:03,09:30:59,15607,15679,19370.0,45,19375.0,18,19375.0,19375.0,19370.0,19375.0,38,14,19370,49,19375,1
2017-02-22 09:31:00,09:31:04,09:31:53,15687,15730,19370.0,47,19375.0,5,19370.0,19375.0,19370.0,19375.0,11,-3,19375,35,19380,63
2017-02-22 09:32:00,09:32:05,09:32:42,15736,15786,19375.0,34,19380.0,63,19375.0,19375.0,19370.0,19370.0,44,-32,19370,44,19375,22
2017-02-22 09:33:00,09:33:00,09:33:58,15798,15873,19370.0,41,19375.0,39,19375.0,19375.0,19370.0,19375.0,50,32,19375,31,19380,56
2017-02-22 09:34:00,09:34:03,09:34:49,15881,15996,19375.0,17,19380.0,63,19375.0,19385.0,19375.0,19380.0,161,92,19380,8,19385,41
2017-02-22 09:35:00,09:35:00,09:35:45,16009,16168,19380.0,35,19385.0,34,19385.0,19385.0,19380.0,19380.0,130,-10,19375,35,19380,35
2017-02-22 09:36:00,09:36:04,09:36:04,16179,16179,19375.0,39,19380.0,39,19380.0,19380.0,19380.0,19380.0,1,1,19375,40,19380,38
2017-02-22 09:37:00,09:37:00,09:37:34,16190,16210,19375.0,41,19380.0,40,19380.0,19380.0,19375.0,19375.0,12,0,19375,43,19380,41
2017-02-22 09:38:00,09:38:09,09:38:54,16217,16307,19375.0,45,19380.0,41,19375.0,19375.0,19375.0,19375.0,52,-46,19375,22,19380,38
2017-02-22 09:39:00,09:39:05,09:39:48,16317,16368,19375.0,28,19380.0,40,19375.0,19375.0,19375.0,19375.0,29,-11,19370,43,19380,41
2017-02-22 09:40:00,09:40:29,09:40:31,16396,16405,19370.0,40,19375.0,38,19375.0,19375.0,19370.0,19370.0,10,0,19370,39,19375,35
2017-02-22 09:41:00,09:41:04,09:41:21,16414,16429,19370.0,40,19375.0,36,19370.0,19375.0,19370.0,19375.0,11,5,19370,40,19375,33
2017-02-22 09:42:00,09:42:04,09:42:17,16448,16472,19370.0,40,19375.0,40,19370.0,19375.0,19370.0,19375.0,23,15,19375,38,19380,33
2017-02-22 09:43:00,09:43:28,09:43:57,16531,16593,19375.0,34,19380.0,41,19380.0,19380.0,19375.0,19375.0,76,-67,19370,50,19375,9
2017-02-22 09:44:00,09:44:16,09:44:21,16615,16635,19375.0,27,19380.0,47,19375.0,19380.0,19375.0,19380.0,20,-8,19375,31,19380,38
2017-02-22 09:45:00,09:45:06,09:45:26,16644,16742,19375.0,30,19380.0,39,19375.0,19375.0,19365.0,19370.0,129,-127,19365,22,19370,39
2017-02-22 09:46:00,09:46:02,09:46:38,16774,16868,19365.0,39,19370.0,49,19365.0,19370.0,19365.0,19370.0,106,82,19365,43,19370,22
2017-02-22 09:47:00,09:47:21,09:47:21,16900,16902,19365.0,53,19370.0,28,19370.0,19370.0,19370.0,19370.0,3,3,19365,54,19370,23
2017-02-22 09:48:00,09:48:02,09:48:34,16914,16997,19365.0,54,19370.0,23,19365.0,19370.0,19365.0,19365.0,70,-50,19365,31,19370,32
2017-02-22 09:49:00,09:49:11,09:49:59,17017,17134,19365.0,36,19370.0,27,19365.0,19365.0,19360.0,19360.0,89,-68,19360,38,19365,34
2017-02-22 09:50:00,09:50:00,09:50:21,17137,17184,19360.0,38,19365.0,34,19365.0,19365.0,19360.0,19365.0,33,25,19360,47,19365,21
2017-02-22 09:51:00,09:51:07,09:51:44,17205,17312,19360.0,39,19365.0,39,19360.0,19365.0,19355.0,19360.0,101,9,19355,49,19360,31
2017-02-22 09:52:00,09:52:24,09:52:51,17354,17504,19355.0,31,19360.0,58,19355.0,19365.0,19355.0,19360.0,164,-4,19355,52,19365,47
2017-02-22 09:53:00,09:53:24,09:53:59,17537,17725,19355.0,38,19360.0,64,19355.0,19360.0,19350.0,19355.0,245,-228,19355,27,19360,35
2017-02-22 09:54:00,09:54:01,09:54:59,17731,18367,19355.0,34,19360.0,40,19355.0,19355.0,19325.0,19335.0,908,-429,19330,49,19335,14
2017-02-22 09:55:00,09:55:03,09:55:59,18376,18656,19330.0,45,19335.0,30,19335.0,19335.0,19325.0,19330.0,279,-47,19330,43,19335,41
2017-02-22 09:56:00,09:56:00,09:56:54,18659,18808,19330.0,43,19335.0,41,19330.0,19335.0,19330.0,19330.0,129,45,19330,40,19335,33
2017-02-22 09:57:00,09:57:10,09:57:55,18830,19048,19330.0,44,19335.0,38,19330.0,19330.0,19320.0,19325.0,353,-247,19325,43,19330,39
2017-02-22 09:58:00,09:58:01,09:58:56,19056,19291,19325.0,41,19330.0,45,19325.0,19325.0,19320.0,19320.0,302,29,19320,40,19325,98
2017-02-22 09:59:00,09:59:18,09:59:59,19308,19490,19320.0,45,19325.0,31,19320.0,19325.0,19315.0,19320.0,171,1,19320,18,19320,15
2017-02-22 10:00:00,10:00:00,10:00:59,19491,19668,19320.0,26,19325.0,54,19320.0,19320.0,19315.0,19320.0,130,-52,19315,40,19320,20
2017-02-22 10:01:00,10:01:00,10:01:59,19671,19799,19315.0,40,19320.0,20,19320.0,19325.0,19315.0,19320.0,89,-5,19320,76,19325,31
2017-02-22 10:02:00,10:02:00,10:02:30,19800,19884,19320.0,77,19325.0,34,19320.0,19325.0,19320.0,19320.0,72,8,19320,53,19325,48
2017-02-22 10:03:00,10:03:00,10:03:33,19897,20022,19320.0,67,19325.0,28,19325.0,19325.0,19320.0,19320.0,214,-96,19320,35,19325,42
2017-02-22 10:04:00,10:04:01,10:04:21,20046,20073,19320.0,48,19325.0,23,19320.0,19325.0,19320.0,19325.0,22,20,19325,30,19330,70
2017-02-22 10:05:00,10:05:07,10:05:25,20108,20200,19325.0,26,19330.0,76,19325.0,19325.0,19325.0,19325.0,115,47,19320,106,19325,4
2017-02-22 10:06:00,10:06:00,10:06:52,20220,20288,19320.0,101,19325.0,42,19325.0,19330.0,19325.0,19325.0,54,34,19325,45,19330,63
2017-02-22 10:07:00,10:07:03,10:07:55,20297,20321,19325.0,55,19330.0,69,19325.0,19325.0,19325.0,19325.0,11,-11,19325,69,19330,64
2017-02-22 10:08:00,10:08:03,10:08:54,20327,20375,19325.0,67,19330.0,66,19325.0,19330.0,19325.0,19325.0,28,-2,19325,65,19330,62
2017-02-22 10:09:00,10:09:01,10:09:55,20377,20413,19325.0,65,19330.0,61,19325.0,19325.0,19325.0,19325.0,13,-13,19325,73,19330,62
2017-02-22 10:10:00,10:10:01,10:10:56,20416,20482,19325.0,79,19330.0,63,19330.0,19330.0,19325.0,19325.0,27,-5,19325,79,19330,50
2017-02-22 10:11:00,10:11:00,10:11:57,20486,20748,19325.0,79,19330.0,57,19330.0,19340.0,19330.0,19335.0,275,120,19330,118,19335,27
2017-02-22 10:12:00,10:12:00,10:12:40,20752,20937,19330.0,118,19335.0,26,19335.0,19335.0,19325.0,19330.0,266,-78,19330,23,19335,54
2017-02-22 10:13:00,10:13:05,10:13:53,20967,21065,19330.0,29,19335.0,106,19330.0,19330.0,19330.0,19330.0,76,10,19330,35,19335,98
2017-02-22 10:14:00,10:14:03,10:14:49,21075,21091,19330.0,45,19335.0,98,19330.0,19330.0,19330.0,19330.0,3,-3,19330,68,19335,93
2017-02-22 10:15:00,10:15:01,10:15:49,21103,21276,19330.0,71,19335.0,94,19335.0,19335.0,19330.0,19335.0,203,-11,19330,69,19335,2
2017-02-22 10:16:00,10:16:21,10:16:59,21303,21343,19330.0,64,19335.0,43,19330.0,19335.0,19330.0,19335.0,20,18,19335,22,19340,46
2017-02-22 10:17:00,10:17:01,10:17:30,21346,21364,19335.0,22,19340.0,46,19340.0,19340.0,19335.0,19335.0,3,1,19335,31,19340,50
2017-02-22 10:18:00,10:18:01,10:18:55,21378,21432,19335.0,48,19340.0,53,19335.0,19335.0,19335.0,19335.0,45,-19,19335,23,19340,50
2017-02-22 10:19:00,10:19:08,10:19:56,21446,21579,19335.0,33,19340.0,52,19335.0,19335.0,19330.0,19330.0,142,-88,19330,8,19335,44
2017-02-22 10:20:00,10:20:05,10:20:57,21588,21684,19330.0,25,19335.0,48,19330.0,19330.0,19330.0,19330.0,85,-1,19325,54,19335,45
2017-02-22 10:21:00,10:21:02,10:21:54,21692,22006,19325.0,53,19330.0,33,19325.0,19325.0,19315.0,19325.0,415,-273,19320,52,19325,26
2017-02-22 10:22:00,10:22:07,10:22:08,22019,22040,19320.0,46,19325.0,40,19325.0,19325.0,19325.0,19325.0,29,29,19320,56,19325,22
2017-02-22 10:23:00,10:23:05,10:23:25,22086,22141,19320.0,53,19325.0,56,19320.0,19325.0,19320.0,19325.0,48,42,19320,53,19325,20
2017-02-22 10:24:00,10:24:03,10:24:54,22165,22304,19320.0,57,19325.0,32,19325.0,19325.0,19320.0,19325.0,121,-75,19320,50,19325,42
2017-02-22 10:25:00,10:25:43,10:25:43,22340,22342,19320.0,55,19325.0,37,19325.0,19325.0,19325.0,19325.0,4,4,19320,54,19325,24
2017-02-22 10:26:00,10:26:05,10:26:57,22365,22509,19320.0,38,19325.0,43,19320.0,19325.0,19320.0,19325.0,159,-47,19325,15,19330,116
2017-02-22 10:27:00,10:27:03,10:27:25,22515,22618,19325.0,17,19330.0,116,19325.0,19330.0,19325.0,19330.0,181,77,19330,6,19335,60
2017-02-22 10:28:00,10:28:04,10:28:37,22639,22737,19330.0,45,19335.0,40,19330.0,19330.0,19330.0,19330.0,98,-69,19330,6,19335,56
2017-02-22 10:29:00,10:29:34,10:29:59,22760,22804,19330.0,24,19335.0,56,19330.0,19330.0,19330.0,19330.0,26,-8,19330,24,19335,68
2017-02-22 10:30:00,10:30:01,10:30:52,22808,22941,19330.0,18,19335.0,68,19330.0,19330.0,19320.0,19325.0,116,-78,19320,41,19325,44
2017-02-22 10:31:00,10:31:34,10:31:56,22955,23007,19320.0,42,19325.0,40,19320.0,19325.0,19320.0,19325.0,46,14,19320,45,19325,18
2017-02-22 10:32:00,10:32:05,10:32:15,23014,23036,19320.0,44,19325.0,15,19325.0,19325.0,19325.0,19325.0,22,10,19320,41,19325,23
2017-02-22 10:33:00,10:33:04,10:33:39,23059,23069,19320.0,38,19325.0,50,19320.0,19325.0,19320.0,19325.0,5,1,19320,39,19325,49
2017-02-22 10:34:00,10:34:03,10:34:38,23080,23127,19320.0,43,19325.0,36,19325.0,19325.0,19325.0,19325.0,46,30,19320,42,19325,13
2017-02-22 10:35:00,10:35:02,10:35:02,23135,23135,19320.0,42,19325.0,25,19325.0,19325.0,19325.0,19325.0,2,2,19320,40,19325,27
2017-02-22 10:36:00,10:36:01,10:36:01,23163,23163,19320.0,40,19325.0,31,19320.0,19320.0,19320.0,19320.0,1,-1,19320,41,19325,30
2017-02-22 10:37:00,10:37:42,10:37:42,23190,23190,19320.0,48,19325.0,34,19320.0,19320.0,19320.0,19320.0,2,-2,19320,47,19325,35
2017-02-22 10:38:00,10:38:21,10:38:42,23196,23209,19320.0,50,19325.0,34,19325.0,19325.0,19320.0,19325.0,7,3,19320,54,19325,22
2017-02-22 10:39:00,10:39:00,10:39:59,23219,23258,19320.0,57,19325.0,10,19325.0,19325.0,19325.0,19325.0,22,20,19325,21,19330,49
2017-02-22 10:40:00,10:40:05,10:40:05,23270,23285,19325.0,23,19330.0,53,19325.0,19325.0,19325.0,19325.0,19,-19,19325,14,19330,52
2017-02-22 10:41:00,10:41:08,10:41:39,23312,23337,19325.0,22,19330.0,56,19330.0,19330.0,19325.0,19325.0,23,-19,19320,45,19325,23
2017-02-22 10:42:00,10:42:04,10:42:39,23339,23407,19320.0,46,19325.0,23,19320.0,19320.0,19315.0,19315.0,39,-35,19315,45,19320,18
2017-02-22 10:43:00,10:43:00,10:43:00,0,0,0.0,0,0.0,0,19315.0,19315.0,19315.0,19315.0,0,0,0,0,0,0
2017-02-22 10:44:00,10:44:01,10:44:43,23499,23542,19315.0,48,19320.0,30,19320.0,19320.0,19320.0,19320.0,42,16,19320,45,19325,35
2017-02-22 10:45:00,10:45:00,10:45:16,23549,23568,19320.0,50,19325.0,33,19320.0,19320.0,19320.0,19320.0,15,-15,19320,31,19325,36
2017-02-22 10:46:00,10:46:33,10:46:42,23585,23647,19320.0,37,19325.0,36,19320.0,19320.0,19315.0,19320.0,63,-13,19315,47,19320,13
2017-02-22 10:47:00,10:47:30,10:47:30,23666,23666,19315.0,46,19320.0,22,19320.0,19320.0,19320.0,19320.0,1,1,19315,45,19320,25
2017-02-22 10:48:00,10:48:01,10:48:01,23681,23685,19315.0,37,19320.0,61,19315.0,19315.0,19315.0,19315.0,4,-4,19315,34,19320,60
2017-02-22 10:49:00,10:49:10,10:49:58,23698,23758,19315.0,39,19320.0,59,19315.0,19320.0,19315.0,19315.0,52,14,19310,51,19320,43
2017-02-22 10:50:00,10:50:16,10:50:52,23767,23789,19315.0,13,19320.0,45,19315.0,19315.0,19315.0,19315.0,16,-16,19310,51,19315,9
2017-02-22 10:51:00,10:51:21,10:51:21,23807,23813,19310.0,49,19315.0,38,19315.0,19315.0,19315.0,19315.0,10,10,19310,50,19315,27
2017-02-22 10:52:00,10:52:04,10:52:12,23830,23882,19310.0,49,19315.0,28,19310.0,19310.0,19310.0,19310.0,100,-30,19310,35,19315,37
2017-02-22 10:53:00,10:53:18,10:53:49,23897,23997,19310.0,36,19315.0,41,19310.0,19310.0,19310.0,19310.0,143,-93,19310,14,19315,44
2017-02-22 10:54:00,10:54:22,10:54:37,24025,24076,19310.0,39,19315.0,35,19310.0,19315.0,19310.0,19315.0,54,52,19310,44,19315,17
2017-02-22 10:55:00,10:55:05,10:55:05,24090,24092,19310.0,48,19315.0,21,19315.0,19315.0,19315.0,19315.0,4,4,19310,49,19320,47
2017-02-22 10:56:00,10:56:09,10:56:57,24111,24137,19310.0,51,19315.0,8,19315.0,19320.0,19315.0,19320.0,21,21,19315,32,19320,30
2017-02-22 10:57:00,10:57:53,10:57:53,24145,24162,19315.0,30,19320.0,34,19320.0,19320.0,19320.0,19320.0,22,20,19320,32,19325,35
2017-02-22 10:58:00,10:58:12,10:58:48,24173,24253,19320.0,32,19325.0,57,19325.0,19325.0,19320.0,19320.0,63,-7,19315,37,19320,45
2017-02-22 10:59:00,10:59:01,10:59:53,24259,24293,19315.0,54,19320.0,42,19320.0,19320.0,19315.0,19315.0,25,-19,19310,62,19315,12
2017-02-22 11:00:00,11:00:08,11:00:21,24307,24326,19310.0,61,19315.0,43,19310.0,19315.0,19310.0,19315.0,20,16,19310,58,19315,24
2017-02-22 11:01:00,11:01:01,11:01:27,24343,24380,19310.0,62,19315.0,31,19310.0,19315.0,19310.0,19315.0,24,8,19310,59,19315,21
2017-02-22 11:02:00,11:02:01,11:02:49,24391,24457,19310.0,60,19315.0,35,19315.0,19320.0,19315.0,19320.0,74,74,19320,20,19325,30
2017-02-22 11:03:00,11:03:00,11:03:36,24468,24538,19320.0,25,19325.0,50,19325.0,19325.0,19325.0,19325.0,67,37,19325,19,19330,55
2017-02-22 11:04:00,11:04:00,11:04:00,0,0,0.0,0,0.0,0,19325.0,19325.0,19325.0,19325.0,0,0,0,0,0,0
2017-02-22 11:05:00,11:05:05,11:05:59,24566,24636,19325.0,26,19330.0,60,19325.0,19330.0,19325.0,19330.0,59,-19,19325,51,19330,15
2017-02-22 11:06:00,11:06:00,11:06:00,0,0,0.0,0,0.0,0,19330.0,19330.0,19330.0,19330.0,0,0,0,0,0,0
2017-02-22 11:07:00,11:07:04,11:07:14,24653,24659,19325.0,28,19330.0,60,19325.0,19330.0,19325.0,19325.0,3,-1,19325,26,19330,58
2017-02-22 11:08:00,11:08:05,11:08:05,24670,24671,19325.0,25,19330.0,60,19325.0,19325.0,19325.0,19325.0,2,-2,19325,22,19330,58
2017-02-22 11:09:00,11:09:04,11:09:42,24678,24767,19325.0,27,19330.0,60,19325.0,19330.0,19325.0,19330.0,83,75,19330,6,19335,51
2017-02-22 11:10:00,11:10:12,11:10:37,24796,24856,19330.0,46,19335.0,33,19335.0,19335.0,19330.0,19330.0,46,6,19325,48,19330,2
2017-02-22 11:11:00,11:11:15,11:11:40,24871,24908,19325.0,46,19330.0,43,19330.0,19330.0,19330.0,19330.0,31,13,19325,63,19330,10
2017-02-22 11:12:00,11:12:57,11:12:58,24926,24940,19325.0,48,19330.0,51,19330.0,19330.0,19330.0,19330.0,17,17,19330,42,19335,48
2017-02-22 11:13:00,11:13:06,11:13:18,24948,24964,19325.0,63,19330.0,16,19330.0,19335.0,19330.0,19335.0,17,17,19330,66,19335,21
2017-02-22 11:14:00,11:14:00,11:14:00,0,0,0.0,0,0.0,0,19335.0,19335.0,19335.0,19335.0,0,0,0,0,0,0
2017-02-22 11:15:00,11:15:04,11:15:37,24987,25002,19330.0,47,19335.0,61,19330.0,19330.0,19330.0,19330.0,5,-5,19330,39,19335,59
2017-02-22 11:16:00,11:16:02,11:16:56,25011,25059,19330.0,49,19335.0,59,19330.0,19335.0,19330.0,19335.0,13,11,19330,65,19335,45
2017-02-22 11:17:00,11:17:00,11:17:00,0,0,0.0,0,0.0,0,19335.0,19335.0,19335.0,19335.0,0,0,0,0,0,0
2017-02-22 11:18:00,11:18:05,11:18:05,25072,25072,19330.0,44,19335.0,65,19330.0,19330.0,19330.0,19330.0,1,-1,19330,42,19335,64
2017-02-22 11:19:00,11:19:38,11:19:38,25086,25086,19330.0,47,19335.0,63,19330.0,19330.0,19330.0,19330.0,2,-2,19330,28,19335,64
2017-02-22 11:20:00,11:20:07,11:20:50,25106,25133,19330.0,31,19335.0,63,19330.0,19330.0,19330.0,19330.0,17,-17,19330,21,19335,56
2017-02-22 11:21:00,11:21:08,11:21:38,25140,25173,19330.0,27,19335.0,54,19330.0,19335.0,19330.0,19335.0,31,21,19335,4,19340,48
2017-02-22 11:22:00,11:22:00,11:22:00,0,0,0.0,0,0.0,0,19335.0,19335.0,19335.0,19335.0,0,0,0,0,0,0
2017-02-22 11:23:00,11:23:01,11:23:51,25194,25206,19335.0,32,19340.0,46,19335.0,19335.0,19335.0,19335.0,5,-5,19335,14,19340,45
2017-02-22 11:24:00,11:24:05,11:24:05,25211,25211,19335.0,20,19340.0,45,19335.0,19335.0,19335.0,19335.0,1,-1,19335,22,19340,46
2017-02-22 11:25:00,11:25:08,11:25:23,25226,25263,19335.0,22,19340.0,47,19335.0,19335.0,19335.0,19335.0,30,-14,19330,55,19340,50
2017-02-22 11:26:00,11:26:23,11:26:23,25282,25283,19330.0,56,19335.0,29,19335.0,19335.0,19335.0,19335.0,2,2,19330,55,19335,15
2017-02-22 11:27:00,11:27:01,11:27:59,25305,25338,19330.0,54,19335.0,36,19330.0,19335.0,19330.0,19335.0,25,15,19330,54,19335,19
2017-02-22 11:28:00,11:28:00,11:28:49,25339,25363,19330.0,50,19335.0,23,19335.0,19335.0,19335.0,19335.0,9,9,19330,58,19335,5
2017-02-22 11:29:00,11:29:21,11:29:21,25372,25374,19330.0,59,19335.0,3,19335.0,19335.0,19335.0,19335.0,3,3,19335,11,19340,46
2017-02-22 11:30:00,11:30:00,11:30:44,25396,25655,19335.0,40,19340.0,37,19340.0,19340.0,19325.0,19335.0,272,56,19330,54,19335,14
2017-02-22 11:31:00,11:31:00,11:31:00,0,0,0.0,0,0.0,0,19335.0,19335.0,19335.0,19335.0,0,0,0,0,0,0
2017-02-22 11:32:00,11:32:03,11:32:03,25689,25689,19330.0,55,19335.0,29,19330.0,19330.0,19330.0,19330.0,1,-1,19330,54,19335,31
2017-02-22 11:33:00,11:33:03,11:33:47,25713,25809,19330.0,55,19335.0,36,19330.0,19340.0,19330.0,19340.0,66,52,19340,24,19345,53
2017-02-22 11:34:00,11:34:28,11:34:28,25844,25849,19340.0,47,19345.0,21,19345.0,19345.0,19345.0,19345.0,7,7,19340,45,19345,24
2017-02-22 11:35:00,11:35:04,11:35:28,25862,25926,19340.0,34,19345.0,37,19340.0,19340.0,19335.0,19335.0,56,-56,19330,34,19335,42
2017-02-22 11:36:00,11:36:04,11:36:48,25947,26054,19330.0,54,19335.0,33,19335.0,19345.0,19335.0,19340.0,111,81,19340,43,19345,29
2017-02-22 11:37:00,11:37:47,11:37:47,26069,26069,19340.0,42,19345.0,30,19345.0,19345.0,19345.0,19345.0,1,1,19340,43,19345,29
2017-02-22 11:38:00,11:38:07,11:38:07,26077,26077,19340.0,44,19345.0,29,19340.0,19340.0,19340.0,19340.0,1,-1,19340,42,19345,28
2017-02-22 11:39:00,11:39:01,11:39:17,26092,26196,19340.0,51,19345.0,20,19340.0,19350.0,19340.0,19345.0,124,-26,19340,44,19350,75
2017-02-22 11:40:00,11:40:01,11:40:40,26216,26269,19340.0,49,19345.0,16,19345.0,19345.0,19345.0,19345.0,26,15,19340,43,19345,22
2017-02-22 11:41:00,11:41:00,11:41:00,0,0,0.0,0,0.0,0,19345.0,19345.0,19345.0,19345.0,0,0,0,0,0,0
2017-02-22 11:42:00,11:42:03,11:42:30,26298,26341,19340.0,46,19345.0,24,19340.0,19345.0,19340.0,19345.0,33,19,19345,42,19350,61
2017-02-22 11:43:00,11:43:05,11:43:55,26348,26441,19345.0,51,19350.0,63,19345.0,19355.0,19345.0,19355.0,81,67,19355,28,19360,58
2017-02-22 11:44:00,11:44:02,11:44:55,26446,26542,19355.0,27,19360.0,60,19355.0,19355.0,19355.0,19355.0,80,13,19350,64,19355,2
2017-02-22 11:45:00,11:45:06,11:45:08,26551,26562,19350.0,64,19355.0,6,19355.0,19355.0,19355.0,19355.0,8,6,19350,48,19355,1
2017-02-22 11:46:00,11:46:48,11:46:56,26588,26618,19350.0,52,19355.0,29,19355.0,19355.0,19355.0,19355.0,23,5,19355,3,19360,52
2017-02-22 11:47:00,11:47:03,11:47:45,26626,26725,19355.0,9,19360.0,52,19355.0,19360.0,19355.0,19360.0,90,27,19355,74,19360,7
2017-02-22 11:48:00,11:48:02,11:48:16,26733,26772,19355.0,75,19360.0,10,19360.0,19360.0,19360.0,19360.0,79,-59,19355,42,19360,25
2017-02-22 11:49:00,11:49:17,11:49:48,26798,26879,19355.0,65,19360.0,27,19355.0,19355.0,19355.0,19355.0,116,-106,19350,56,19360,53
2017-02-22 11:50:00,11:50:39,11:50:39,26898,26901,19350.0,59,19355.0,8,19355.0,19355.0,19355.0,19355.0,8,8,19355,39,19360,34
2017-02-22 11:51:00,11:51:35,11:51:36,26926,26928,19355.0,52,19360.0,47,19360.0,19360.0,19360.0,19360.0,2,2,19355,51,19360,45
2017-02-22 11:52:00,11:52:02,11:52:02,26932,26932,19355.0,51,19360.0,49,19355.0,19355.0,19355.0,19355.0,2,-2,19355,49,19360,47
2017-02-22 11:53:00,11:53:02,11:53:58,26946,26970,19355.0,52,19360.0,46,19355.0,19360.0,19355.0,19360.0,4,-2,19355,48,19360,47
2017-02-22 11:54:00,11:54:03,11:54:03,26974,26974,19355.0,48,19360.0,53,19355.0,19355.0,19355.0,19355.0,2,-2,19355,45,19360,51
2017-02-22 11:55:00,11:55:01,11:55:59,26998,27090,19355.0,45,19360.0,48,19355.0,19360.0,19355.0,19355.0,64,-62,19355,35,19360,54
2017-02-22 11:56:00,11:56:00,11:56:00,0,0,0.0,0,0.0,0,19355.0,19355.0,19355.0,19355.0,0,0,0,0,0,0
2017-02-22 11:57:00,11:57:35,11:57:42,27135,27139,19355.0,48,19360.0,43,19355.0,19355.0,19355.0,19355.0,7,-7,19355,47,19360,46
2017-02-22 11:58:00,11:58:01,11:58:12,27150,27161,19355.0,38,19360.0,44,19355.0,19355.0,19355.0,19355.0,3,-3,19355,39,19360,40
2017-02-22 11:59:00,11:59:01,11:59:50,27185,27301,19355.0,31,19360.0,44,19355.0,19360.0,19355.0,19360.0,120,88,19360,9,19360,19
2017-02-22 12:00:00,12:00:01,12:00:57,27312,27433,19360.0,15,19365.0,49,19360.0,19360.0,19355.0,19360.0,71,-5,19355,42,19365,46
2017-02-22 12:01:00,12:01:21,12:01:48,27456,27468,19360.0,30,19365.0,54,19365.0,19365.0,19365.0,19365.0,3,3,19360,29,19365,49
2017-02-22 12:02:00,12:02:04,12:02:04,27474,27475,19360.0,34,19365.0,52,19360.0,19360.0,19360.0,19360.0,2,-2,19360,32,19365,50
2017-02-22 12:03:00,12:03:09,12:03:15,27505,27511,19360.0,42,19365.0,50,19360.0,19365.0,19360.0,19365.0,3,1,19360,42,19365,47
2017-02-22 12:04:00,12:04:10,12:04:48,27538,27569,19360.0,34,19365.0,47,19360.0,19365.0,19360.0,19365.0,10,4,19360,34,19365,37
2017-02-22 12:05:00,12:05:11,12:05:44,27593,27605,19360.0,24,19365.0,51,19360.0,19360.0,19360.0,19360.0,11,-11,19360,21,19365,47
2017-02-22 12:06:00,12:06:07,12:06:28,27615,27714,19360.0,40,19365.0,41,19360.0,19360.0,19360.0,19360.0,114,-112,19355,61,19360,4
2017-02-22 12:07:00,12:07:00,12:07:00,0,0,0.0,0,0.0,0,19360.0,19360.0,19360.0,19360.0,0,0,0,0,0,0
2017-02-22 12:08:00,12:08:01,12:08:01,27743,27744,19355.0,63,19360.0,32,19355.0,19355.0,19355.0,19355.0,2,-2,19355,61,19360,30
2017-02-22 12:09:00,12:09:01,12:09:01,27755,27755,19355.0,62,19360.0,40,19355.0,19355.0,19355.0,19355.0,1,-1,19355,64,19360,38
2017-02-22 12:10:00,12:10:07,12:10:44,27766,27813,19355.0,67,19360.0,43,19360.0,19365.0,19360.0,19365.0,32,30,19360,51,19365,28
2017-02-22 12:11:00,12:11:35,12:11:57,27829,27879,19360.0,48,19365.0,37,19360.0,19360.0,19355.0,19355.0,62,-62,19355,11,19360,58
2017-02-22 12:12:00,12:12:04,12:12:16,27883,27897,19355.0,11,19360.0,60,19355.0,19355.0,19355.0,19355.0,12,-12,19355,6,19360,51
2017-02-22 12:13:00,12:13:09,12:13:09,27910,27910,19355.0,42,19360.0,53,19355.0,19355.0,19355.0,19355.0,1,-1,19355,39,19360,54
2017-02-22 12:14:00,12:14:37,12:14:46,27935,27944,19355.0,47,19360.0,82,19360.0,19360.0,19355.0,19355.0,4,-2,19355,51,19360,91
2017-02-22 12:15:00,12:15:13,12:15:13,27957,27957,19355.0,51,19360.0,92,19355.0,19355.0,19355.0,19355.0,1,-1,19355,50,19360,90
2017-02-22 12:16:00,12:16:07,12:16:57,27968,28105,19355.0,54,19360.0,87,19355.0,19365.0,19355.0,19365.0,175,157,19360,74,19365,14
2017-02-22 12:17:00,12:17:06,12:17:06,28109,28109,19360.0,75,19365.0,21,19365.0,19365.0,19365.0,19365.0,2,2,19360,74,19365,20
2017-02-22 12:18:00,12:18:30,12:18:38,28126,28171,19360.0,75,19365.0,65,19360.0,19360.0,19355.0,19360.0,74,-36,19360,25,19365,71
2017-02-22 12:19:00,12:19:46,12:19:46,28194,28194,19360.0,57,19365.0,72,19360.0,19360.0,19360.0,19360.0,1,-1,19360,23,19365,83
2017-02-22 12:20:00,12:20:04,12:20:08,28205,28213,19360.0,8,19365.0,84,19360.0,19360.0,19360.0,19360.0,6,-6,19360,7,19365,84
2017-02-22 12:21:00,12:21:07,12:21:45,28226,28249,19360.0,17,19365.0,85,19360.0,19365.0,19360.0,19365.0,5,3,19360,13,19365,84
2017-02-22 12:22:00,12:22:16,12:22:39,28257,28280,19360.0,14,19365.0,85,19360.0,19365.0,19360.0,19360.0,18,-16,19355,46,19360,29
2017-02-22 12:23:00,12:23:01,12:23:48,28295,28322,19355.0,40,19360.0,43,19355.0,19355.0,19355.0,19355.0,12,-12,19355,19,19360,59
2017-02-22 12:24:00,12:24:07,12:24:13,28330,28334,19355.0,25,19360.0,59,19355.0,19355.0,19355.0,19355.0,2,-2,19355,22,19360,61
2017-02-22 12:25:00,12:25:04,12:25:17,28354,28368,19355.0,12,19360.0,90,19355.0,19355.0,19355.0,19355.0,12,-12,19350,54,19355,23
2017-02-22 12:26:00,12:26:02,12:26:05,28391,28406,19350.0,55,19355.0,26,19350.0,19355.0,19350.0,19355.0,24,22,19355,42,19360,39
2017-02-22 12:27:00,12:27:01,12:27:43,28423,28492,19355.0,46,19360.0,47,19355.0,19355.0,19355.0,19355.0,70,-6,19350,59,19355,14
2017-02-22 12:28:00,12:28:56,12:28:56,28520,28535,19350.0,56,19355.0,34,19350.0,19350.0,19350.0,19350.0,26,-26,19345,46,19350,33
2017-02-22 12:29:00,12:29:08,12:29:17,28550,28581,19345.0,40,19350.0,49,19345.0,19345.0,19345.0,19345.0,35,-35,19340,80,19345,15
2017-02-22 12:30:00,12:30:02,12:30:47,28598,28684,19340.0,79,19345.0,35,19340.0,19345.0,19340.0,19340.0,73,-71,19335,60,19345,63
2017-02-22 12:31:00,12:31:17,12:31:17,28708,28715,19335.0,79,19340.0,39,19335.0,19335.0,19335.0,19335.0,9,-9,19335,58,19340,40
2017-02-22 12:32:00,12:32:03,12:32:03,28734,28761,19335.0,70,19340.0,39,19340.0,19345.0,19340.0,19345.0,40,40,19340,42,19345,45
2017-02-22 12:33:00,12:33:15,12:33:35,28796,28808,19340.0,66,19345.0,35,19340.0,19340.0,19340.0,19340.0,3,-3,19340,64,19345,36
2017-02-22 12:34:00,12:34:07,12:34:53,28817,28905,19340.0,67,19345.0,34,19340.0,19340.0,19335.0,19335.0,88,-56,19335,9,19340,51
2017-02-22 12:35:00,12:35:06,12:35:56,28914,29001,19335.0,30,19340.0,53,19335.0,19335.0,19330.0,19335.0,35,7,19335,28,19340,64
2017-02-22 12:36:00,12:36:30,12:36:31,29025,29042,19335.0,24,19340.0,73,19335.0,19335.0,19330.0,19335.0,24,-18,19335,10,19340,69
2017-02-22 12:37:00,12:37:06,12:37:06,29054,29090,19335.0,28,19340.0,69,19340.0,19340.0,19335.0,19340.0,72,70,19340,26,19345,51
2017-02-22 12:38:00,12:38:23,12:38:23,29138,29138,19340.0,47,19345.0,46,19340.0,19340.0,19340.0,19340.0,1,-1,19340,46,19345,52
2017-02-22 12:39:00,12:39:07,12:39:56,29163,29229,19340.0,42,19345.0,49,19340.0,19345.0,19340.0,19345.0,63,33,19340,39,19345,20
2017-02-22 12:40:00,12:40:00,12:40:00,0,0,0.0,0,0.0,0,19345.0,19345.0,19345.0,19345.0,0,0,0,0,0,0
2017-02-22 12:41:00,12:41:16,12:41:16,29255,29256,19340.0,36,19345.0,54,19340.0,19340.0,19340.0,19340.0,2,-2,19340,30,19345,64
2017-02-22 12:42:00,12:42:03,12:42:54,29279,29313,19340.0,50,19345.0,50,19340.0,19345.0,19340.0,19345.0,2,0,19340,38,19345,59
2017-02-22 12:43:00,12:43:15,12:43:15,29324,29346,19340.0,45,19345.0,51,19345.0,19345.0,19345.0,19345.0,42,42,19345,10,19350,62
2017-02-22 12:44:00,12:44:06,12:44:36,29370,29434,19345.0,43,19350.0,72,19345.0,19345.0,19340.0,19340.0,55,-55,19340,44,19345,33
2017-02-22 12:45:00,12:45:02,12:45:48,29454,29483,19340.0,51,19345.0,31,19345.0,19350.0,19345.0,19345.0,18,12,19345,40,19350,74
2017-02-22 12:46:00,12:46:34,12:46:34,29494,29494,19345.0,41,19350.0,71,19345.0,19345.0,19345.0,19345.0,1,-1,19345,40,19350,70
2017-02-22 12:47:00,12:47:04,12:47:44,29507,29552,19345.0,50,19350.0,70,19345.0,19345.0,19340.0,19345.0,55,-7,19345,21,19350,78
2017-02-22 12:48:00,12:48:44,12:48:48,29573,29706,19345.0,37,19350.0,74,19345.0,19345.0,19335.0,19340.0,186,-124,19335,58,19345,57
2017-02-22 12:49:00,12:49:08,12:49:38,29719,29742,19335.0,58,19340.0,41,19335.0,19335.0,19335.0,19335.0,10,-10,19335,43,19340,53
2017-02-22 12:50:00,12:50:01,12:50:59,29749,29857,19335.0,47,19340.0,54,19335.0,19345.0,19335.0,19340.0,152,66,19340,4,19345,65
2017-02-22 12:51:00,12:51:00,12:51:18,29859,29935,19340.0,4,19345.0,66,19340.0,19340.0,19340.0,19340.0,68,-24,19335,53,19345,64
2017-02-22 12:52:00,12:52:19,12:52:21,29982,30005,19340.0,74,19345.0,36,19345.0,19350.0,19345.0,19350.0,30,30,19345,51,19350,70
2017-02-22 12:53:00,12:53:33,12:53:56,30030,30167,19345.0,70,19350.0,64,19350.0,19350.0,19345.0,19345.0,175,-17,19345,7,19350,63
2017-02-22 12:54:00,12:54:26,12:54:54,30193,30237,19345.0,38,19350.0,37,19350.0,19350.0,19350.0,19350.0,53,53,19350,16,19355,70
2017-02-22 12:55:00,12:55:39,12:55:49,30264,30295,19350.0,51,19355.0,46,19355.0,19355.0,19355.0,19355.0,46,36,19355,22,19360,70
2017-02-22 12:56:00,12:56:01,12:56:59,30310,30521,19355.0,9,19360.0,71,19355.0,19360.0,19355.0,19360.0,250,119,19355,57,19365,67
2017-02-22 12:57:00,12:57:02,12:57:55,30527,30642,19355.0,48,19360.0,20,19360.0,19360.0,19360.0,19360.0,113,-18,19360,25,19365,72
2017-02-22 12:58:00,12:58:00,12:58:23,30647,30687,19360.0,19,19365.0,72,19360.0,19360.0,19360.0,19360.0,37,18,19360,34,19365,67
2017-02-22 12:59:00,12:59:31,12:59:52,30719,30775,19360.0,33,19365.0,69,19360.0,19365.0,19360.0,19360.0,57,-55,19355,60,19365,73
2017-02-22 13:00:00,13:00:16,13:00:50,30804,30890,19360.0,26,19365.0,77,19360.0,19365.0,19360.0,19360.0,84,-62,19360,51,19365,74
2017-02-22 13:01:00,13:01:01,13:01:32,30898,30966,19360.0,39,19365.0,58,19360.0,19365.0,19355.0,19365.0,93,-1,19360,64,19365,77
2017-02-22 13:02:00,13:02:03,13:02:35,30982,30999,19360.0,92,19365.0,42,19365.0,19365.0,19365.0,19365.0,4,4,19360,89,19365,65
2017-02-22 13:03:00,13:03:02,13:03:30,31006,31023,19360.0,92,19365.0,64,19360.0,19365.0,19360.0,19365.0,4,2,19360,85,19365,65
2017-02-22 13:04:00,13:04:00,13:04:23,31034,31186,19360.0,84,19365.0,69,19360.0,19360.0,19360.0,19360.0,222,-162,19360,14,19365,92
2017-02-22 13:05:00,13:05:07,13:05:59,31200,31249,19360.0,47,19365.0,59,19360.0,19365.0,19360.0,19365.0,50,46,19360,50,19365,27
2017-02-22 13:06:00,13:06:00,13:06:00,31250,31251,19360.0,54,19365.0,48,19365.0,19365.0,19365.0,19365.0,2,2,19360,50,19365,27
2017-02-22 13:07:00,13:07:16,13:07:40,31280,31294,19360.0,47,19365.0,60,19365.0,19365.0,19360.0,19360.0,11,-7,19360,40,19365,66
2017-02-22 13:08:00,13:08:25,13:08:55,31304,31368,19360.0,40,19365.0,65,19365.0,19365.0,19360.0,19365.0,90,86,19360,41,19365,51
2017-02-22 13:09:00,13:09:10,13:09:55,31374,31417,19360.0,41,19365.0,53,19365.0,19365.0,19355.0,19360.0,31,-25,19355,69,19360,47
2017-02-22 13:10:00,13:10:10,13:10:55,31432,31511,19355.0,72,19360.0,44,19360.0,19360.0,19355.0,19360.0,69,-27,19355,35,19360,64
2017-02-22 13:11:00,13:11:10,13:11:55,31524,31606,19355.0,41,19360.0,56,19360.0,19370.0,19360.0,19370.0,76,76,19365,61,19370,66
2017-02-22 13:12:00,13:12:04,13:12:55,31620,31787,19365.0,128,19370.0,54,19370.0,19375.0,19370.0,19370.0,165,43,19365,53,19370,44
2017-02-22 13:13:00,13:13:10,13:13:55,31796,31876,19365.0,50,19370.0,48,19370.0,19375.0,19370.0,19375.0,102,102,19370,45,19375,54
2017-02-22 13:14:00,13:14:10,13:14:56,31888,31963,19370.0,50,19375.0,65,19375.0,19375.0,19365.0,19370.0,77,-57,19365,53,19370,58
2017-02-22 13:15:00,13:15:01,13:15:52,31976,32122,19365.0,55,19370.0,55,19370.0,19370.0,19370.0,19370.0,171,77,19365,67,19375,56
2017-02-22 13:16:00,13:16:10,13:16:55,32139,32161,19365.0,46,19370.0,45,19370.0,19370.0,19365.0,19370.0,5,3,19365,45,19370,51
2017-02-22 13:17:00,13:17:10,13:17:55,32168,32189,19365.0,46,19370.0,53,19370.0,19370.0,19365.0,19370.0,5,3,19365,52,19370,49
2017-02-22 13:18:00,13:18:03,13:18:55,32193,32290,19365.0,53,19370.0,49,19370.0,19370.0,19365.0,19370.0,113,-95,19365,45,19370,51
2017-02-22 13:19:00,13:19:01,13:19:55,32294,32337,19365.0,46,19370.0,51,19370.0,19370.0,19365.0,19370.0,31,-19,19365,48,19370,54
2017-02-22 13:20:00,13:20:02,13:20:55,32344,32386,19365.0,21,19370.0,59,19370.0,19370.0,19365.0,19370.0,11,7,19365,57,19370,50
2017-02-22 13:21:00,13:21:06,13:21:59,32391,32438,19365.0,61,19370.0,50,19365.0,19370.0,19365.0,19370.0,19,13,19365,44,19370,53
2017-02-22 13:22:00,13:22:00,13:22:55,32441,32487,19365.0,44,19370.0,53,19370.0,19370.0,19365.0,19370.0,12,8,19365,42,19370,75
2017-02-22 13:23:00,13:23:10,13:23:55,32493,32542,19365.0,43,19370.0,76,19370.0,19370.0,19365.0,19370.0,19,17,19365,51,19370,54
2017-02-22 13:24:00,13:24:08,13:24:57,32554,32716,19365.0,40,19370.0,71,19365.0,19370.0,19365.0,19370.0,162,100,19365,43,19370,40
2017-02-22 13:25:00,13:25:02,13:25:56,32724,32888,19365.0,54,19370.0,45,19370.0,19380.0,19370.0,19375.0,179,46,19370,60,19375,29
2017-02-22 13:26:00,13:26:10,13:26:55,32900,33043,19370.0,61,19375.0,42,19375.0,19375.0,19375.0,19375.0,138,76,19370,59,19375,66
2017-02-22 13:27:00,13:27:10,13:27:55,33055,33079,19370.0,60,19375.0,62,19375.0,19375.0,19375.0,19375.0,5,5,19370,62,19375,60
2017-02-22 13:28:00,13:28:01,13:28:55,33085,33153,19370.0,63,19375.0,61,19370.0,19370.0,19365.0,19370.0,49,-43,19365,37,19370,60
2017-02-22 13:29:00,13:29:05,13:29:55,33163,33199,19365.0,39,19370.0,60,19365.0,19370.0,19365.0,19370.0,11,7,19365,39,19370,56
2017-02-22 13:30:00,13:30:02,13:30:55,33205,33242,19365.0,38,19370.0,56,19365.0,19370.0,19365.0,19370.0,6,4,19365,42,19370,66
2017-02-22 13:31:00,13:31:00,13:31:55,33245,33342,19365.0,43,19370.0,67,19370.0,19370.0,19360.0,19370.0,87,-63,19365,35,19370,55
2017-02-22 13:32:00,13:32:10,13:32:55,33351,33377,19365.0,29,19370.0,57,19370.0,19370.0,19370.0,19370.0,4,4,19365,44,19370,53
2017-02-22 13:33:00,13:33:06,13:33:54,33387,33545,19365.0,65,19370.0,37,19370.0,19375.0,19370.0,19370.0,193,-7,19365,35,19370,44
2017-02-22 13:34:00,13:34:10,13:34:55,33561,33589,19365.0,44,19370.0,54,19370.0,19370.0,19370.0,19370.0,4,4,19365,40,19370,65
2017-02-22 13:35:00,13:35:06,13:35:55,33594,33703,19365.0,44,19370.0,65,19365.0,19370.0,19360.0,19360.0,121,-113,19355,48,19360,49
2017-02-22 13:36:00,13:36:04,13:36:57,33713,33894,19355.0,39,19360.0,61,19355.0,19355.0,19350.0,19355.0,186,-5,19350,51,19360,83
2017-02-22 13:37:00,13:37:10,13:37:55,33908,33941,19350.0,48,19355.0,32,19355.0,19355.0,19355.0,19355.0,4,4,19350,57,19355,41
2017-02-22 13:38:00,13:38:05,13:38:55,33946,33987,19350.0,58,19355.0,39,19350.0,19360.0,19350.0,19360.0,28,20,19355,36,19360,70
2017-02-22 13:39:00,13:39:10,13:39:43,34007,34091,19355.0,66,19360.0,44,19360.0,19360.0,19360.0,19360.0,110,50,19355,52,19360,20
2017-02-22 13:40:00,13:40:10,13:40:55,34122,34175,19355.0,63,19360.0,18,19360.0,19360.0,19360.0,19360.0,21,17,19355,61,19360,22
2017-02-22 13:41:00,13:41:10,13:41:55,34185,34251,19355.0,63,19360.0,23,19360.0,19360.0,19355.0,19355.0,50,-22,19350,69,19355,2
2017-02-22 13:42:00,13:42:09,13:42:51,34263,34302,19350.0,65,19355.0,20,19355.0,19355.0,19350.0,19355.0,22,10,19355,37,19360,73
2017-02-22 13:43:00,13:43:03,13:43:47,34318,34363,19355.0,45,19360.0,72,19360.0,19360.0,19355.0,19360.0,24,-14,19355,47,19360,68
2017-02-22 13:44:00,13:44:01,13:44:59,34372,34490,19355.0,52,19360.0,71,19360.0,19360.0,19350.0,19355.0,78,-38,19350,60,19355,7
2017-02-22 13:45:00,13:45:00,13:45:20,34493,34522,19350.0,60,19355.0,7,19355.0,19355.0,19355.0,19355.0,14,-6,19350,70,19355,18
2017-02-22 13:46:00,13:46:01,13:46:31,34533,34543,19350.0,70,19355.0,32,19350.0,19350.0,19350.0,19350.0,3,-3,19350,79,19355,35
2017-02-22 13:47:00,13:47:08,13:47:58,34556,34592,19350.0,92,19355.0,46,19350.0,19355.0,19350.0,19355.0,31,17,19350,109,19360,94
2017-02-22 13:48:00,13:48:16,13:48:20,34606,34635,19350.0,119,19355.0,7,19355.0,19355.0,19355.0,19355.0,25,7,19355,6,19360,87
2017-02-22 13:49:00,13:49:03,13:49:55,34657,34730,19355.0,66,19360.0,88,19355.0,19355.0,19355.0,19355.0,74,-40,19350,90,19355,3
2017-02-22 13:50:00,13:50:01,13:50:59,34736,34856,19350.0,90,19355.0,4,19355.0,19355.0,19345.0,19345.0,145,-103,19340,71,19345,17
2017-02-22 13:51:00,13:51:00,13:51:47,34859,34921,19340.0,71,19345.0,17,19345.0,19350.0,19340.0,19340.0,50,13,19340,72,19345,32
2017-02-22 13:52:00,13:52:03,13:52:24,34939,34995,19340.0,68,19345.0,34,19340.0,19345.0,19340.0,19345.0,43,37,19345,43,19350,93
2017-02-22 13:53:00,13:53:28,13:53:52,35054,35092,19345.0,79,19350.0,89,19345.0,19350.0,19345.0,19345.0,26,-20,19345,60,19350,111
2017-02-22 13:54:00,13:54:02,13:54:59,35098,35263,19345.0,58,19350.0,101,19350.0,19355.0,19345.0,19355.0,190,102,19350,95,19355,35
2017-02-22 13:55:00,13:55:03,13:55:56,35274,35435,19350.0,99,19355.0,42,19355.0,19355.0,19350.0,19355.0,172,42,19350,96,19355,60
2017-02-22 13:56:00,13:56:02,13:56:53,35443,35541,19350.0,97,19355.0,77,19355.0,19360.0,19355.0,19355.0,139,95,19350,90,19355,113
2017-02-22 13:57:00,13:57:00,13:57:58,35546,35700,19350.0,92,19355.0,116,19355.0,19355.0,19350.0,19355.0,196,192,19350,104,19355,37
2017-02-22 13:58:00,13:58:04,13:58:59,35709,35892,19350.0,103,19355.0,92,19355.0,19360.0,19355.0,19355.0,204,114,19355,63,19355,22
2017-02-22 13:59:00,13:59:00,13:59:59,35895,36306,19355.0,65,19360.0,124,19355.0,19370.0,19355.0,19370.0,627,325,19365,77,19370,54
2017-02-22 14:00:00,14:00:00,14:00:54,36307,36805,19365.0,21,19370.0,97,19370.0,19385.0,19365.0,19380.0,967,245,19375,59,19380,127
2017-02-22 14:01:00,14:01:00,14:01:59,36812,37015,19375.0,61,19380.0,131,19375.0,19375.0,19370.0,19375.0,205,-73,19370,82,19375,119
2017-02-22 14:02:00,14:02:00,14:02:57,37018,37237,19370.0,82,19375.0,119,19370.0,19380.0,19370.0,19375.0,329,47,19370,137,19375,80
2017-02-22 14:03:00,14:03:00,14:03:59,37239,37322,19370.0,141,19375.0,80,19370.0,19375.0,19370.0,19375.0,58,16,19370,132,19375,114
2017-02-22 14:04:00,14:04:00,14:04:58,37324,37427,19370.0,135,19375.0,114,19370.0,19375.0,19370.0,19370.0,108,62,19370,116,19375,61
2017-02-22 14:05:00,14:05:00,14:05:55,37430,37546,19370.0,116,19375.0,61,19375.0,19375.0,19365.0,19370.0,183,-85,19365,53,19370,36
2017-02-22 14:06:00,14:06:00,14:06:59,37557,37737,19365.0,37,19370.0,97,19365.0,19370.0,19365.0,19365.0,221,-85,19360,101,19365,5
2017-02-22 14:07:00,14:07:00,14:07:50,37738,37808,19360.0,103,19365.0,47,19365.0,19370.0,19365.0,19370.0,84,16,19365,42,19370,99
2017-02-22 14:08:00,14:08:04,14:08:59,37817,37974,19365.0,23,19370.0,100,19370.0,19375.0,19370.0,19375.0,285,241,19375,20,19375,29
2017-02-22 14:09:00,14:09:02,14:09:59,37980,38072,19370.0,129,19375.0,22,19375.0,19380.0,19375.0,19375.0,84,52,19375,75,19380,76
