,ST,ET,sidx,eidx,bB,bBS,bA,bAS,O,H,L,C,V,OF,eB,eBS,eA,eAS
2017-01-09 08:00:00,08:00:00,08:00:55,1130,1201,19575.0,9,19580.0,27,19580.0,19580.0,19570.0,19575.0,44,22,19575,5,19580,18
2017-01-09 08:01:00,08:01:04,08:01:29,1210,1262,19575.0,5,19580.0,19,19575.0,19580.0,19575.0,19575.0,45,1,19570,22,19575,8
2017-01-09 08:02:00,08:02:00,08:02:59,1271,1324,19570.0,20,19575.0,25,19570.0,19570.0,19565.0,19565.0,36,-22,19565,11,19570,16
2017-01-09 08:03:00,08:03:03,08:03:32,1330,1353,19565.0,12,19570.0,21,19570.0,19570.0,19570.0,19570.0,21,19,19570,6,19575,14
2017-01-09 08:04:00,08:04:01,08:04:58,1362,1421,19570.0,28,19575.0,18,19570.0,19570.0,19555.0,19555.0,81,-75,19555,11,19560,11
2017-01-09 08:05:00,08:05:04,08:05:56,1423,1487,19555.0,11,19560.0,16,19560.0,19565.0,19560.0,19560.0,43,-1,19560,2,19565,14
2017-01-09 08:06:00,08:06:04,08:06:54,1493,1526,19560.0,4,19565.0,13,19565.0,19565.0,19555.0,19555.0,12,-8,19555,20,19560,9
2017-01-09 08:07:00,08:07:04,08:07:56,1528,1643,19555.0,20,19560.0,11,19560.0,19560.0,19545.0,19550.0,98,-36,19550,2,19555,31
2017-01-09 08:08:00,08:08:02,08:08:59,1651,1691,19550.0,8,19555.0,31,19555.0,19555.0,19550.0,19550.0,45,31,19550,28,19555,11
2017-01-09 08:09:00,08:09:02,08:09:59,1693,1756,19550.0,28,19555.0,7,19555.0,19555.0,19545.0,19550.0,53,-19,19545,9,19550,11
2017-01-09 08:10:00,08:10:00,08:10:51,1759,1822,19545.0,9,19550.0,11,19545.0,19545.0,19540.0,19545.0,43,7,19540,17,19545,12
2017-01-09 08:11:00,08:11:01,08:11:52,1825,1902,19540.0,16,19545.0,11,19540.0,19550.0,19540.0,19540.0,51,-7,19540,14,19545,8
2017-01-09 08:12:00,08:12:00,08:12:44,1906,1945,19540.0,15,19545.0,8,19545.0,19550.0,19540.0,19550.0,25,11,19545,19,19555,8
2017-01-09 08:13:00,08:13:00,08:13:47,1948,2020,19545.0,18,19550.0,9,19550.0,19570.0,19550.0,19570.0,74,66,19570,9,19575,11
2017-01-09 08:14:00,08:14:05,08:14:23,2024,2045,19570.0,10,19575.0,11,19575.0,19575.0,19570.0,19575.0,13,-9,19570,4,19575,20
2017-01-09 08:15:00,08:15:29,08:15:59,2057,2074,19570.0,6,19575.0,30,19570.0,19570.0,19565.0,19565.0,8,-6,19565,15,19570,13
2017-01-09 08:16:00,08:16:08,08:16:57,2077,2104,19565.0,15,19570.0,13,19570.0,19570.0,19565.0,19570.0,8,-2,19565,15,19570,8
2017-01-09 08:17:00,08:17:00,08:17:52,2109,2151,19565.0,15,19570.0,11,19565.0,19575.0,19565.0,19575.0,32,18,19575,13,19580,10
2017-01-09 08:18:00,08:18:13,08:18:13,2155,2155,19575.0,12,19580.0,10,19580.0,19580.0,19580.0,19580.0,1,1,19575,13,19580,11
2017-01-09 08:19:00,08:19:04,08:19:53,2159,2204,19575.0,12,19580.0,11,19580.0,19585.0,19580.0,19585.0,33,23,19580,18,19590,15
2017-01-09 08:20:00,08:20:01,08:20:26,2209,2264,19585.0,8,19590.0,17,19585.0,19590.0,19585.0,19585.0,36,-8,19580,11,19585,9
2017-01-09 08:21:00,08:21:07,08:21:50,2274,2285,19580.0,10,19585.0,10,19585.0,19585.0,19585.0,19585.0,3,3,19580,11,19585,10
2017-01-09 08:22:00,08:22:10,08:22:40,2292,2334,19580.0,12,19585.0,15,19580.0,19580.0,19570.0,19570.0,48,-16,19570,4,19575,14
2017-01-09 08:23:00,08:23:03,08:23:59,2347,2365,19570.0,7,19575.0,12,19575.0,19575.0,19570.0,19570.0,9,3,19570,11,19575,7
2017-01-09 08:24:00,08:24:03,08:24:31,2369,2405,19570.0,11,19575.0,8,19575.0,19580.0,19575.0,19580.0,27,11,19580,3,19585,15
2017-01-09 08:25:00,08:25:03,08:25:16,2417,2454,19580.0,11,19585.0,10,19585.0,19595.0,19585.0,19590.0,39,23,19585,18,19590,16
2017-01-09 08:26:00,08:26:30,08:26:49,2466,2505,19585.0,19,19590.0,18,19590.0,19590.0,19590.0,19590.0,36,26,19585,22,19595,16
2017-01-09 08:27:00,08:27:03,08:27:50,2511,2571,19590.0,7,19595.0,15,19590.0,19590.0,19585.0,19590.0,26,-2,19590,7,19595,13
2017-01-09 08:28:00,08:28:02,08:28:02,2575,2575,19590.0,9,19595.0,13,19595.0,19595.0,19595.0,19595.0,1,1,19590,15,19595,8
2017-01-09 08:29:00,08:29:47,08:29:58,2590,2641,19590.0,17,19595.0,13,19595.0,19595.0,19590.0,19590.0,43,-3,19595,11,19595,9
2017-01-09 08:30:00,08:30:14,08:30:49,2646,2675,19590.0,11,19595.0,9,19595.0,19595.0,19595.0,19595.0,13,-7,19590,36,19595,4
2017-01-09 08:31:00,08:31:12,08:31:29,2690,2715,19590.0,30,19595.0,11,19595.0,19595.0,19590.0,19590.0,4,-2,19590,8,19590,5
2017-01-09 08:32:00,08:32:08,08:32:54,2731,2752,19585.0,46,19590.0,12,19590.0,19590.0,19585.0,19585.0,53,-39,19580,26,19585,12
2017-01-09 08:33:00,08:33:02,08:33:55,2757,2768,19580.0,20,19585.0,14,19585.0,19585.0,19585.0,19585.0,18,18,19585,13,19590,15
2017-01-09 08:34:00,08:34:15,08:34:15,2771,2772,19585.0,13,19590.0,15,19590.0,19590.0,19590.0,19590.0,2,2,19585,14,19590,16
2017-01-09 08:35:00,08:35:29,08:35:30,2778,2803,19585.0,23,19590.0,17,19585.0,19585.0,19585.0,19585.0,78,-12,19585,15,19590,15
2017-01-09 08:36:00,08:36:04,08:36:49,2809,2841,19585.0,12,19590.0,16,19585.0,19585.0,19585.0,19585.0,52,-52,19585,14,19590,15
2017-01-09 08:37:00,08:37:23,08:37:25,2843,2860,19585.0,21,19590.0,15,19590.0,19590.0,19585.0,19585.0,21,7,19585,14,19590,11
2017-01-09 08:38:00,08:38:02,08:38:28,2867,2901,19585.0,17,19590.0,12,19590.0,19590.0,19585.0,19590.0,21,-7,19585,17,19590,5
2017-01-09 08:39:00,08:39:09,08:39:44,2908,2946,19585.0,14,19590.0,12,19590.0,19595.0,19590.0,19595.0,50,44,19595,7,19600,57
2017-01-09 08:40:00,08:40:00,08:40:19,2953,2959,19595.0,24,19600.0,56,19595.0,19595.0,19595.0,19595.0,3,-3,19595,19,19600,60
2017-01-09 08:41:00,08:41:23,08:41:42,2964,2989,19595.0,22,19600.0,61,19600.0,19600.0,19600.0,19600.0,66,62,19600,4,19605,47
2017-01-09 08:42:00,08:42:28,08:42:29,2997,3008,19600.0,4,19605.0,47,19605.0,19605.0,19605.0,19605.0,54,40,19600,9,19605,8
2017-01-09 08:43:00,08:43:00,08:43:50,3020,3097,19600.0,26,19605.0,8,19605.0,19610.0,19605.0,19610.0,54,18,19605,16,19610,8
2017-01-09 08:44:00,08:44:00,08:44:00,0,0,0.0,0,0.0,0,19610.0,19610.0,19610.0,19610.0,0,0,0,0,0,0
2017-01-09 08:45:00,08:45:53,08:45:55,3119,3128,19605.0,15,19610.0,16,19605.0,19610.0,19605.0,19610.0,7,3,19605,14,19610,16
2017-01-09 08:46:00,08:46:02,08:46:02,3134,3134,19605.0,15,19610.0,14,19610.0,19610.0,19610.0,19610.0,1,1,19605,16,19610,13
2017-01-09 08:47:00,08:47:03,08:47:03,3145,3145,19605.0,16,19610.0,11,19605.0,19605.0,19605.0,19605.0,1,-1,19605,15,19610,12
2017-01-09 08:48:00,08:48:01,08:48:28,3150,3216,19605.0,15,19610.0,12,19610.0,19610.0,19610.0,19610.0,62,2,19610,4,19615,20
2017-01-09 08:49:00,08:49:47,08:49:47,3223,3223,19610.0,7,19615.0,17,19610.0,19610.0,19610.0,19610.0,1,-1,19610,6,19615,16
2017-01-09 08:50:00,08:50:08,08:50:57,3235,3267,19605.0,17,19610.0,11,19605.0,19605.0,19605.0,19605.0,21,-1,19600,28,19605,1
2017-01-09 08:51:00,08:51:55,08:51:55,3282,3282,19600.0,24,19605.0,18,19600.0,19600.0,19600.0,19600.0,1,-1,19600,23,19605,17
2017-01-09 08:52:00,08:52:01,08:52:59,3287,3434,19600.0,23,19605.0,15,19600.0,19605.0,19595.0,19595.0,140,-70,19595,25,19600,9
2017-01-09 08:53:00,08:53:11,08:53:49,3448,3627,19595.0,10,19600.0,18,19600.0,19610.0,19595.0,19600.0,179,87,19600,2,19605,9
2017-01-09 08:54:00,08:54:04,08:54:31,3638,3667,19600.0,5,19605.0,9,19600.0,19600.0,19595.0,19595.0,16,-16,19595,20,19600,19
2017-01-09 08:55:00,08:55:10,08:55:30,3681,3780,19595.0,22,19600.0,9,19600.0,19605.0,19595.0,19595.0,108,40,19595,4,19600,7
2017-01-09 08:56:00,08:56:38,08:56:48,3817,3838,19595.0,15,19600.0,7,19595.0,19605.0,19595.0,19600.0,22,20,19600,28,19605,12
2017-01-09 08:57:00,08:57:00,08:57:00,0,0,0.0,0,0.0,0,19600.0,19600.0,19600.0,19600.0,0,0,0,0,0,0
2017-01-09 08:58:00,08:58:02,08:58:44,3864,3932,19600.0,24,19605.0,14,19600.0,19605.0,19600.0,19600.0,70,4,19595,22,19605,13
2017-01-09 08:59:00,08:59:14,08:59:49,3939,3980,19600.0,16,19605.0,11,19600.0,19605.0,19600.0,19605.0,26,-18,19605,9,19610,18
2017-01-09 09:00:00,09:00:30,09:00:52,4000,4002,19605.0,9,19610.0,16,19605.0,19605.0,19605.0,19605.0,2,-2,19605,9,19610,15
2017-01-09 09:01:00,09:01:32,09:01:50,4013,4077,19605.0,10,19610.0,14,19610.0,19615.0,19605.0,19605.0,56,-12,19605,8,19610,12
2017-01-09 09:02:00,09:02:23,09:02:27,4088,4115,19605.0,19,19610.0,7,19610.0,19615.0,19610.0,19610.0,31,6,19605,18,19610,4
2017-01-09 09:03:00,09:03:20,09:03:27,4127,4183,19605.0,19,19610.0,10,19610.0,19615.0,19605.0,19610.0,61,9,19605,18,19615,16
2017-01-09 09:04:00,09:04:00,09:04:00,0,0,0.0,0,0.0,0,19610.0,19610.0,19610.0,19610.0,0,0,0,0,0,0
2017-01-09 09:05:00,09:05:00,09:05:58,4198,4278,19605.0,17,19610.0,18,19610.0,19610.0,19600.0,19600.0,85,27,19595,10,19600,15
2017-01-09 09:06:00,09:06:01,09:06:55,4286,4318,19595.0,1,19600.0,18,19595.0,19595.0,19595.0,19595.0,22,20,19590,21,19600,20
2017-01-09 09:07:00,09:07:00,09:07:33,4322,4332,19590.0,21,19600.0,22,19595.0,19600.0,19595.0,19600.0,3,1,19595,6,19600,25
2017-01-09 09:08:00,09:08:01,09:08:50,4344,4378,19595.0,6,19600.0,23,19595.0,19605.0,19595.0,19605.0,26,14,19600,14,19605,9
2017-01-09 09:09:00,09:09:27,09:09:50,4393,4429,19600.0,13,19605.0,5,19605.0,19605.0,19605.0,19605.0,9,1,19600,12,19605,3
2017-01-09 09:10:00,09:10:20,09:10:20,4435,4435,19600.0,14,19605.0,6,19605.0,19605.0,19605.0,19605.0,1,1,19600,15,19610,14
2017-01-09 09:11:00,09:11:46,09:11:48,4453,4466,19600.0,11,19605.0,6,19600.0,19610.0,19600.0,19605.0,8,4,19605,10,19610,12
2017-01-09 09:12:00,09:12:06,09:12:06,4474,4475,19605.0,10,19610.0,11,19610.0,19610.0,19610.0,19610.0,2,2,19605,17,19610,4
2017-01-09 09:13:00,09:13:00,09:13:00,0,0,0.0,0,0.0,0,19610.0,19610.0,19610.0,19610.0,0,0,0,0,0,0
2017-01-09 09:14:00,09:14:00,09:14:58,4504,4553,19605.0,15,19610.0,13,19610.0,19615.0,19605.0,19605.0,48,2,19600,16,19605,2
2017-01-09 09:15:00,09:15:44,09:15:44,4579,4586,19600.0,9,19605.0,10,19600.0,19600.0,19595.0,19595.0,10,-10,19595,8,19600,7
2017-01-09 09:16:00,09:16:00,09:16:52,4589,4618,19595.0,10,19600.0,9,19600.0,19600.0,19600.0,19600.0,11,5,19600,5,19605,14
2017-01-09 09:17:00,09:17:06,09:17:33,4628,4642,19600.0,4,19605.0,15,19600.0,19605.0,19600.0,19600.0,3,-1,19600,7,19605,12
2017-01-09 09:18:00,09:18:18,09:18:50,4652,4677,19600.0,8,19605.0,5,19605.0,19610.0,19605.0,19610.0,7,3,19605,6,19610,9
2017-01-09 09:19:00,09:19:34,09:19:34,4695,4695,19605.0,7,19610.0,8,19605.0,19605.0,19605.0,19605.0,1,-1,19605,5,19610,10
2017-01-09 09:20:00,09:20:05,09:20:45,4702,4726,19605.0,7,19610.0,9,19605.0,19610.0,19605.0,19610.0,5,-1,19610,20,19615,7
2017-01-09 09:21:00,09:21:08,09:21:34,4736,4760,19610.0,18,19615.0,9,19615.0,19615.0,19615.0,19615.0,16,16,19610,23,19615,10
2017-01-09 09:22:00,09:22:53,09:22:56,4776,4780,19610.0,21,19615.0,14,19610.0,19610.0,19610.0,19610.0,3,-3,19610,16,19615,18
2017-01-09 09:23:00,09:23:12,09:23:19,4783,4806,19610.0,16,19615.0,18,19610.0,19610.0,19605.0,19605.0,24,-24,19600,10,19605,6
2017-01-09 09:24:00,09:24:00,09:24:00,0,0,0.0,0,0.0,0,19605.0,19605.0,19605.0,19605.0,0,0,0,0,0,0
2017-01-09 09:25:00,09:25:17,09:25:59,4820,4842,19600.0,7,19605.0,8,19605.0,19605.0,19605.0,19605.0,6,0,19600,10,19610,11
2017-01-09 09:26:00,09:26:10,09:26:10,4845,4845,19600.0,10,19610.0,11,19610.0,19610.0,19610.0,19610.0,1,1,19605,6,19610,10
2017-01-09 09:27:00,09:27:54,09:27:57,4863,4874,19605.0,12,19610.0,6,19610.0,19610.0,19610.0,19610.0,10,2,19605,10,19610,2
2017-01-09 09:28:00,09:28:00,09:28:39,4879,4923,19605.0,9,19610.0,4,19610.0,19610.0,19605.0,19610.0,22,14,19610,13,19615,7
2017-01-09 09:29:00,09:29:01,09:29:16,4932,4951,19610.0,21,19615.0,7,19615.0,19615.0,19615.0,19615.0,7,-3,19610,18,19615,6
2017-01-09 09:30:00,09:30:05,09:30:54,4965,5039,19610.0,16,19615.0,9,19615.0,19620.0,19610.0,19615.0,37,15,19610,8,19615,8
2017-01-09 09:31:00,09:31:04,09:31:57,5043,5121,19610.0,7,19615.0,8,19610.0,19620.0,19610.0,19615.0,66,44,19610,16,19620,17
2017-01-09 09:32:00,09:32:09,09:32:48,5127,5191,19610.0,16,19615.0,2,19615.0,19615.0,19610.0,19610.0,72,10,19610,5,19615,16
2017-01-09 09:33:00,09:33:47,09:33:47,5206,5206,19610.0,14,19615.0,20,19610.0,19610.0,19610.0,19610.0,1,-1,19610,15,19615,30
2017-01-09 09:34:00,09:34:01,09:34:17,5212,5227,19610.0,10,19615.0,31,19610.0,19610.0,19605.0,19605.0,18,-18,19605,2,19610,15
2017-01-09 09:35:00,09:35:42,09:35:42,5254,5254,19605.0,14,19610.0,14,19610.0,19610.0,19610.0,19610.0,1,1,19605,13,19610,13
2017-01-09 09:36:00,09:36:14,09:36:17,5261,5294,19605.0,14,19610.0,13,19610.0,19610.0,19610.0,19610.0,37,-1,19610,6,19615,30
2017-01-09 09:37:00,09:37:00,09:37:00,0,0,0.0,0,0.0,0,19610.0,19610.0,19610.0,19610.0,0,0,0,0,0,0
2017-01-09 09:38:00,09:38:24,09:38:24,5331,5347,19610.0,16,19615.0,21,19615.0,19615.0,19615.0,19615.0,31,31,19610,14,19615,4
2017-01-09 09:39:00,09:39:13,09:39:43,5355,5375,19610.0,11,19615.0,15,19615.0,19615.0,19615.0,19615.0,15,9,19610,14,19615,5
2017-01-09 09:40:00,09:40:12,09:40:57,5385,5436,19610.0,13,19615.0,1,19615.0,19620.0,19615.0,19620.0,16,14,19615,9,19620,5
2017-01-09 09:41:00,09:41:02,09:41:14,5444,5456,19615.0,9,19620.0,9,19620.0,19620.0,19615.0,19615.0,6,0,19615,1,19620,12
2017-01-09 09:42:00,09:42:07,09:42:30,5476,5496,19610.0,13,19615.0,9,19610.0,19615.0,19610.0,19615.0,8,-2,19610,14,19620,16
2017-01-09 09:43:00,09:43:01,09:43:01,5508,5508,19610.0,14,19615.0,9,19615.0,19615.0,19615.0,19615.0,1,1,19610,13,19615,8
2017-01-09 09:44:00,09:44:01,09:44:52,5515,5535,19610.0,7,19615.0,11,19610.0,19615.0,19610.0,19610.0,3,-1,19610,10,19615,17
2017-01-09 09:45:00,09:45:00,09:45:00,0,0,0.0,0,0.0,0,19610.0,19610.0,19610.0,19610.0,0,0,0,0,0,0
2017-01-09 09:46:00,09:46:14,09:46:14,5543,5543,19610.0,16,19615.0,15,19610.0,19610.0,19610.0,19610.0,1,-1,19610,17,19615,16
2017-01-09 09:47:00,09:47:33,09:47:33,5550,5550,19610.0,13,19615.0,16,19610.0,19610.0,19610.0,19610.0,1,-1,19610,10,19615,17
2017-01-09 09:48:00,09:48:00,09:48:00,0,0,0.0,0,0.0,0,19610.0,19610.0,19610.0,19610.0,0,0,0,0,0,0
2017-01-09 09:49:00,09:49:00,09:49:00,0,0,0.0,0,0.0,0,19610.0,19610.0,19610.0,19610.0,0,0,0,0,0,0
2017-01-09 09:50:00,09:50:18,09:50:18,5562,5562,19610.0,15,19615.0,17,19610.0,19610.0,19610.0,19610.0,1,-1,19610,14,19615,16
2017-01-09 09:51:00,09:51:00,09:51:00,0,0,0.0,0,0.0,0,19610.0,19610.0,19610.0,19610.0,0,0,0,0,0,0
2017-01-09 09:52:00,09:52:41,09:52:41,5573,5573,19610.0,14,19615.0,15,19615.0,19615.0,19615.0,19615.0,1,1,19610,18,19615,13
2017-01-09 09:53:00,09:53:01,09:53:19,5577,5585,19610.0,17,19615.0,13,19610.0,19615.0,19610.0,19615.0,9,7,19610,34,19615,5
2017-01-09 09:54:00,09:54:00,09:54:00,0,0,0.0,0,0.0,0,19615.0,19615.0,19615.0,19615.0,0,0,0,0,0,0
2017-01-09 09:55:00,09:55:20,09:55:52,5602,5605,19610.0,36,19615.0,10,19615.0,19615.0,19610.0,19610.0,2,0,19610,35,19615,11
2017-01-09 09:56:00,09:56:30,09:56:43,5609,5633,19610.0,36,19615.0,11,19615.0,19615.0,19610.0,19610.0,36,-10,19610,10,19615,15
2017-01-09 09:57:00,09:57:47,09:57:50,5658,5675,19610.0,14,19615.0,13,19610.0,19615.0,19610.0,19610.0,16,-8,19605,8,19610,6
2017-01-09 09:58:00,09:58:07,09:58:07,5693,5694,19605.0,7,19610.0,6,19605.0,19605.0,19605.0,19605.0,2,-2,19605,2,19610,9
2017-01-09 09:59:00,09:59:00,09:59:00,0,0,0.0,0,0.0,0,19605.0,19605.0,19605.0,19605.0,0,0,0,0,0,0
2017-01-09 10:00:00,10:00:00,10:00:00,0,0,0.0,0,0.0,0,19605.0,19605.0,19605.0,19605.0,0,0,0,0,0,0
2017-01-09 10:01:00,10:01:00,10:01:55,5716,5744,19605.0,11,19610.0,7,19610.0,19610.0,19600.0,19600.0,9,-5,19600,6,19605,10
2017-01-09 10:02:00,10:02:20,10:02:56,5754,5768,19600.0,8,19605.0,8,19600.0,19605.0,19600.0,19605.0,6,2,19600,5,19605,7
2017-01-09 10:03:00,10:03:59,10:03:59,5775,5792,19600.0,10,19605.0,8,19600.0,19600.0,19600.0,19600.0,21,-21,19600,5,19605,12
2017-01-09 10:04:00,10:04:00,10:04:54,5796,5822,19600.0,4,19605.0,12,19600.0,19610.0,19600.0,19610.0,10,4,19605,12,19615,11
2017-01-09 10:05:00,10:05:00,10:05:00,0,0,0.0,0,0.0,0,19610.0,19610.0,19610.0,19610.0,0,0,0,0,0,0
2017-01-09 10:06:00,10:06:02,10:06:54,5829,5848,19605.0,12,19615.0,13,19615.0,19615.0,19610.0,19610.0,3,1,19610,8,19615,15
2017-01-09 10:07:00,10:07:00,10:07:01,5851,5855,19610.0,8,19615.0,15,19615.0,19615.0,19615.0,19615.0,4,4,19610,8,19615,14
2017-01-09 10:08:00,10:08:33,10:08:34,5867,5875,19610.0,8,19615.0,14,19610.0,19610.0,19610.0,19610.0,9,-5,19610,6,19615,14
2017-01-09 10:09:00,10:09:18,10:09:35,5887,5904,19610.0,8,19615.0,16,19610.0,19610.0,19605.0,19605.0,8,-8,19605,10,19610,7
2017-01-09 10:10:00,10:10:12,10:10:19,5909,5911,19605.0,12,19615.0,16,19610.0,19610.0,19605.0,19605.0,2,-1,19605,11,19610,9
2017-01-09 10:11:00,10:11:24,10:11:28,5920,5922,19605.0,11,19610.0,11,19605.0,19605.0,19605.0,19605.0,2,-2,19605,9,19610,10
2017-01-09 10:12:00,10:12:06,10:12:19,5926,5931,19605.0,6,19610.0,11,19610.0,19610.0,19605.0,19605.0,2,0,19605,9,19610,10
2017-01-09 10:13:00,10:13:44,10:13:44,5946,5946,19605.0,10,19610.0,11,19605.0,19605.0,19605.0,19605.0,1,-1,19605,9,19610,12
2017-01-09 10:14:00,10:14:17,10:14:17,5950,5950,19605.0,10,19610.0,12,19605.0,19605.0,19605.0,19605.0,1,-1,19605,9,19610,13
2017-01-09 10:15:00,10:15:02,10:15:20,5956,5980,19605.0,9,19610.0,14,19605.0,19605.0,19600.0,19600.0,12,-8,19600,9,19605,7
2017-01-09 10:16:00,10:16:00,10:16:00,0,0,0.0,0,0.0,0,19600.0,19600.0,19600.0,19600.0,0,0,0,0,0,0
2017-01-09 10:17:00,10:17:52,10:17:52,5995,5995,19600.0,7,19605.0,10,19600.0,19600.0,19600.0,19600.0,1,-1,19600,8,19605,9
2017-01-09 10:18:00,10:18:16,10:18:16,5998,5998,19600.0,8,19605.0,9,19600.0,19600.0,19600.0,19600.0,1,-1,19600,9,19605,8
2017-01-09 10:19:00,10:19:03,10:19:03,6009,6009,19600.0,8,19605.0,8,19605.0,19605.0,19605.0,19605.0,1,1,19600,9,19605,7
2017-01-09 10:20:00,10:20:31,10:20:31,6022,6022,19600.0,14,19605.0,9,19600.0,19600.0,19600.0,19600.0,1,-1,19600,13,19605,8
2017-01-09 10:21:00,10:21:00,10:21:00,0,0,0.0,0,0.0,0,19600.0,19600.0,19600.0,19600.0,0,0,0,0,0,0
2017-01-09 10:22:00,10:22:09,10:22:09,6038,6038,19600.0,14,19605.0,7,19600.0,19600.0,19600.0,19600.0,1,-1,19600,12,19605,8
2017-01-09 10:23:00,10:23:17,10:23:30,6047,6052,19600.0,14,19605.0,15,19600.0,19600.0,19600.0,19600.0,3,-3,19600,12,19605,15
2017-01-09 10:24:00,10:24:48,10:24:48,6066,6066,19600.0,52,19605.0,11,19605.0,19605.0,19605.0,19605.0,1,1,19600,53,19605,10
2017-01-09 10:25:00,10:25:43,10:25:57,6070,6096,19600.0,53,19605.0,11,19605.0,19605.0,19600.0,19605.0,15,5,19605,8,19610,21
2017-01-09 10:26:00,10:26:00,10:26:39,6098,6105,19605.0,8,19610.0,22,19610.0,19610.0,19605.0,19605.0,2,0,19605,12,19610,18
2017-01-09 10:27:00,10:27:28,10:27:43,6113,6152,19605.0,12,19610.0,20,19610.0,19615.0,19610.0,19615.0,41,33,19615,6,19620,17
2017-01-09 10:28:00,10:28:16,10:28:31,6168,6201,19615.0,6,19620.0,24,19615.0,19620.0,19610.0,19610.0,22,6,19610,14,19615,6
2017-01-09 10:29:00,10:29:32,10:29:36,6210,6216,19610.0,19,19620.0,23,19610.0,19610.0,19610.0,19610.0,6,-6,19610,11,19615,11
2017-01-09 10:30:00,10:30:00,10:30:00,0,0,0.0,0,0.0,0,19610.0,19610.0,19610.0,19610.0,0,0,0,0,0,0
2017-01-09 10:31:00,10:31:30,10:31:34,6227,6232,19610.0,12,19615.0,12,19615.0,19615.0,19610.0,19610.0,2,0,19610,13,19615,11
2017-01-09 10:32:00,10:32:00,10:32:00,0,0,0.0,0,0.0,0,19610.0,19610.0,19610.0,19610.0,0,0,0,0,0,0
2017-01-09 10:33:00,10:33:17,10:33:53,6248,6290,19610.0,12,19615.0,13,19610.0,19615.0,19610.0,19610.0,27,-13,19605,10,19610,3
2017-01-09 10:34:00,10:34:03,10:34:44,6295,6316,19605.0,11,19610.0,5,19610.0,19610.0,19605.0,19605.0,6,4,19605,9,19610,15
2017-01-09 10:35:00,10:35:16,10:35:58,6328,6342,19605.0,11,19610.0,15,19610.0,19610.0,19610.0,19610.0,4,4,19605,9,19610,17
2017-01-09 10:36:00,10:36:43,10:36:58,6355,6396,19605.0,10,19610.0,18,19610.0,19610.0,19605.0,19605.0,24,-13,19605,3,19610,12
2017-01-09 10:37:00,10:37:00,10:37:57,6401,6447,19605.0,4,19610.0,13,19605.0,19610.0,19600.0,19605.0,17,-14,19600,47,19610,13
2017-01-09 10:38:00,10:38:00,10:38:35,6452,6501,19605.0,2,19610.0,12,19605.0,19605.0,19600.0,19600.0,69,-69,19600,10,19605,25
2017-01-09 10:39:00,10:39:04,10:39:48,6528,6536,19600.0,16,19605.0,26,19605.0,19605.0,19600.0,19600.0,4,2,19600,20,19605,19
2017-01-09 10:40:00,10:40:03,10:40:03,6538,6538,19600.0,20,19605.0,20,19605.0,19605.0,19605.0,19605.0,1,1,19600,18,19605,19
2017-01-09 10:41:00,10:41:14,10:41:30,6545,6561,19600.0,19,19605.0,18,19605.0,19605.0,19605.0,19605.0,25,15,19605,7,19610,15
2017-01-09 10:42:00,10:42:33,10:42:33,6570,6570,19605.0,9,19610.0,15,19605.0,19605.0,19605.0,19605.0,1,-1,19605,8,19610,14
2017-01-09 10:43:00,10:43:00,10:43:00,0,0,0.0,0,0.0,0,19605.0,19605.0,19605.0,19605.0,0,0,0,0,0,0
2017-01-09 10:44:00,10:44:08,10:44:58,6584,6596,19605.0,3,19610.0,16,19605.0,19610.0,19605.0,19610.0,5,-1,19605,5,19610,17
2017-01-09 10:45:00,10:45:12,10:45:18,6601,6609,19605.0,4,19610.0,18,19605.0,19605.0,19600.0,19600.0,6,-6,19600,7,19605,14
2017-01-09 10:46:00,10:46:43,10:46:43,6622,6622,19600.0,7,19605.0,17,19600.0,19600.0,19600.0,19600.0,1,-1,19600,6,19605,18
2017-01-09 10:47:00,10:47:08,10:47:57,6626,6672,19600.0,7,19605.0,18,19600.0,19600.0,19600.0,19600.0,31,-1,19595,25,19600,1
2017-01-09 10:48:00,10:48:00,10:48:00,0,0,0.0,0,0.0,0,19600.0,19600.0,19600.0,19600.0,0,0,0,0,0,0
2017-01-09 10:49:00,10:49:05,10:49:05,6690,6690,19595.0,24,19600.0,8,19600.0,19600.0,19600.0,19600.0,1,1,19595,25,19600,17
2017-01-09 10:50:00,10:50:13,10:50:46,6715,6729,19595.0,24,19600.0,10,19595.0,19600.0,19595.0,19595.0,8,-6,19595,17,19600,16
2017-01-09 10:51:00,10:51:00,10:51:00,0,0,0.0,0,0.0,0,19595.0,19595.0,19595.0,19595.0,0,0,0,0,0,0
2017-01-09 10:52:00,10:52:02,10:52:44,6753,6785,19595.0,20,19600.0,16,19600.0,19600.0,19600.0,19600.0,24,10,19600,1,19605,18
2017-01-09 10:53:00,10:53:10,10:53:35,6795,6813,19600.0,7,19605.0,18,19600.0,19600.0,19600.0,19600.0,16,-6,19595,20,19600,2
2017-01-09 10:54:00,10:54:59,10:54:59,6829,6832,19595.0,22,19600.0,4,19600.0,19600.0,19600.0,19600.0,4,4,19600,2,19605,17
2017-01-09 10:55:00,10:55:00,10:55:03,6833,6837,19595.0,22,19600.0,4,19600.0,19605.0,19600.0,19605.0,2,2,19600,6,19605,16
2017-01-09 10:56:00,10:56:03,10:56:22,6850,6858,19600.0,13,19605.0,15,19605.0,19605.0,19600.0,19600.0,4,2,19600,16,19605,9
2017-01-09 10:57:00,10:57:03,10:57:05,6860,6865,19600.0,16,19605.0,14,19605.0,19605.0,19600.0,19600.0,3,1,19600,16,19605,13
2017-01-09 10:58:00,10:58:04,10:58:58,6868,6887,19600.0,16,19605.0,13,19605.0,19605.0,19600.0,19605.0,4,2,19600,15,19605,13
2017-01-09 10:59:00,10:59:08,10:59:58,6892,6907,19600.0,10,19605.0,14,19600.0,19605.0,19600.0,19605.0,4,2,19605,10,19610,12
2017-01-09 11:00:00,11:00:38,11:00:38,6913,6914,19605.0,10,19610.0,14,19610.0,19610.0,19610.0,19610.0,2,2,19605,11,19610,12
2017-01-09 11:01:00,11:01:39,11:01:49,6921,6924,19605.0,10,19610.0,14,19610.0,19610.0,19605.0,19605.0,2,0,19605,10,19610,12
2017-01-09 11:02:00,11:02:00,11:02:00,0,0,0.0,0,0.0,0,19605.0,19605.0,19605.0,19605.0,0,0,0,0,0,0
2017-01-09 11:03:00,11:03:02,11:03:20,6927,6931,19605.0,11,19610.0,13,19610.0,19610.0,19610.0,19610.0,3,3,19605,11,19610,10
2017-01-09 11:04:00,11:04:16,11:04:38,6934,6940,19605.0,12,19610.0,11,19605.0,19610.0,19605.0,19605.0,3,-1,19605,13,19610,10
2017-01-09 11:05:00,11:05:24,11:05:41,6942,6945,19605.0,12,19610.0,10,19610.0,19610.0,19610.0,19610.0,3,3,19605,13,19610,8
2017-01-09 11:06:00,11:06:00,11:06:00,0,0,0.0,0,0.0,0,19610.0,19610.0,19610.0,19610.0,0,0,0,0,0,0
2017-01-09 11:07:00,11:07:22,11:07:22,6952,6952,19605.0,12,19610.0,9,19605.0,19605.0,19605.0,19605.0,1,-1,19605,13,19610,8
2017-01-09 11:08:00,11:08:00,11:08:00,0,0,0.0,0,0.0,0,19605.0,19605.0,19605.0,19605.0,0,0,0,0,0,0
2017-01-09 11:09:00,11:09:00,11:09:00,0,0,0.0,0,0.0,0,19605.0,19605.0,19605.0,19605.0,0,0,0,0,0,0
2017-01-09 11:10:00,11:10:07,11:10:07,6958,6958,19605.0,13,19610.0,11,19605.0,19605.0,19605.0,19605.0,1,-1,19605,12,19610,10
2017-01-09 11:11:00,11:11:00,11:11:00,0,0,0.0,0,0.0,0,19605.0,19605.0,19605.0,19605.0,0,0,0,0,0,0
2017-01-09 11:12:00,11:12:50,11:12:50,6967,6967,19605.0,11,19610.0,11,19605.0,19605.0,19605.0,19605.0,1,-1,19605,12,19610,10
2017-01-09 11:13:00,11:13:00,11:13:00,0,0,0.0,0,0.0,0,19605.0,19605.0,19605.0,19605.0,0,0,0,0,0,0
2017-01-09 11:14:00,11:14:00,11:14:00,0,0,0.0,0,0.0,0,19605.0,19605.0,19605.0,19605.0,0,0,0,0,0,0
2017-01-09 11:15:00,11:15:24,11:15:37,6986,7032,19605.0,7,19610.0,13,19605.0,19605.0,19600.0,19600.0,43,5,19595,19,19600,8
2017-01-09 11:16:00,11:16:01,11:16:01,7035,7041,19595.0,19,19600.0,8,19600.0,19600.0,19600.0,19600.0,8,8,19600,6,19605,16
2017-01-09 11:17:00,11:17:10,11:17:57,7072,7119,19600.0,19,19605.0,4,19605.0,19610.0,19605.0,19610.0,35,19,19610,12,19615,11
2017-01-09 11:18:00,11:18:00,11:18:00,0,0,0.0,0,0.0,0,19610.0,19610.0,19610.0,19610.0,0,0,0,0,0,0
2017-01-09 11:19:00,11:19:00,11:19:00,0,0,0.0,0,0.0,0,19610.0,19610.0,19610.0,19610.0,0,0,0,0,0,0
2017-01-09 11:20:00,11:20:00,11:20:00,0,0,0.0,0,0.0,0,19610.0,19610.0,19610.0,19610.0,0,0,0,0,0,0
2017-01-09 11:21:00,11:21:08,11:21:08,7140,7140,19610.0,13,19615.0,12,19610.0,19610.0,19610.0,19610.0,1,-1,19610,12,19615,11
2017-01-09 11:22:00,11:22:00,11:22:00,0,0,0.0,0,0.0,0,19610.0,19610.0,19610.0,19610.0,0,0,0,0,0,0
2017-01-09 11:23:00,11:23:51,11:23:51,7149,7149,19610.0,15,19615.0,14,19610.0,19610.0,19610.0,19610.0,1,-1,19610,14,19615,13
2017-01-09 11:24:00,11:24:00,11:24:00,0,0,0.0,0,0.0,0,19610.0,19610.0,19610.0,19610.0,0,0,0,0,0,0
2017-01-09 11:25:00,11:25:43,11:25:43,7153,7163,19610.0,14,19615.0,14,19610.0,19610.0,19610.0,19610.0,14,-14,19605,14,19610,12
2017-01-09 11:26:00,11:26:29,11:26:29,7166,7171,19605.0,14,19610.0,12,19610.0,19610.0,19610.0,19610.0,12,12,19610,8,19615,14
2017-01-09 11:27:00,11:27:13,11:27:52,7179,7199,19610.0,6,19615.0,14,19610.0,19610.0,19610.0,19610.0,13,-13,19610,4,19615,15
2017-01-09 11:28:00,11:28:00,11:28:00,0,0,0.0,0,0.0,0,19610.0,19610.0,19610.0,19610.0,0,0,0,0,0,0
2017-01-09 11:29:00,11:29:24,11:29:24,7207,7207,19610.0,7,19615.0,15,19610.0,19610.0,19610.0,19610.0,1,-1,19610,6,19615,14
2017-01-09 11:30:00,11:30:00,11:30:00,0,0,0.0,0,0.0,0,19610.0,19610.0,19610.0,19610.0,0,0,0,0,0,0
2017-01-09 11:31:00,11:31:00,11:31:00,0,0,0.0,0,0.0,0,19610.0,19610.0,19610.0,19610.0,0,0,0,0,0,0
2017-01-09 11:32:00,11:32:05,11:32:07,7229,7232,19610.0,10,19615.0,19,19615.0,19615.0,19610.0,19610.0,2,0,19610,14,19615,17
2017-01-09 11:33:00,11:33:59,11:33:59,7245,7251,19610.0,23,19615.0,10,19615.0,19615.0,19615.0,19615.0,8,8,19615,18,19620,17
2017-01-09 11:34:00,11:34:08,11:34:08,7256,7256,19615.0,19,19620.0,16,19620.0,19620.0,19620.0,19620.0,1,1,19615,18,19620,15
2017-01-09 11:35:00,11:35:52,11:35:54,7275,7279,19615.0,13,19620.0,16,19620.0,19620.0,19620.0,19620.0,4,4,19615,14,19620,11
2017-01-09 11:36:00,11:36:00,11:36:00,0,0,0.0,0,0.0,0,19620.0,19620.0,19620.0,19620.0,0,0,0,0,0,0
2017-01-09 11:37:00,11:37:29,11:37:29,7291,7301,19615.0,11,19620.0,20,19620.0,19620.0,19620.0,19620.0,19,19,19620,11,19625,19
2017-01-09 11:38:00,11:38:02,11:38:39,7309,7357,19620.0,13,19625.0,16,19625.0,19630.0,19625.0,19630.0,34,20,19625,13,19630,8
2017-01-09 11:39:00,11:39:43,11:39:43,7366,7366,19625.0,16,19630.0,10,19630.0,19630.0,19630.0,19630.0,1,1,19625,17,19630,9
2017-01-09 11:40:00,11:40:01,11:40:30,7374,7402,19625.0,12,19630.0,22,19630.0,19630.0,19625.0,19625.0,16,-12,19620,15,19625,10
2017-01-09 11:41:00,11:41:00,11:41:00,0,0,0.0,0,0.0,0,19625.0,19625.0,19625.0,19625.0,0,0,0,0,0,0
2017-01-09 11:42:00,11:42:00,11:42:00,0,0,0.0,0,0.0,0,19625.0,19625.0,19625.0,19625.0,0,0,0,0,0,0
2017-01-09 11:43:00,11:43:01,11:43:15,7418,7449,19620.0,11,19625.0,16,19620.0,19620.0,19620.0,19620.0,30,-6,19620,5,19625,20
2017-01-09 11:44:00,11:44:00,11:44:00,0,0,0.0,0,0.0,0,19620.0,19620.0,19620.0,19620.0,0,0,0,0,0,0
2017-01-09 11:45:00,11:45:46,11:45:46,7470,7470,19620.0,8,19625.0,22,19620.0,19620.0,19620.0,19620.0,1,-1,19620,7,19625,21
2017-01-09 11:46:00,11:46:00,11:46:00,0,0,0.0,0,0.0,0,19620.0,19620.0,19620.0,19620.0,0,0,0,0,0,0
2017-01-09 11:47:00,11:47:01,11:47:01,7485,7492,19620.0,8,19625.0,23,19620.0,19620.0,19620.0,19620.0,8,-8,19615,11,19620,10
2017-01-09 11:48:00,11:48:35,11:48:35,7506,7506,19615.0,8,19620.0,13,19615.0,19615.0,19615.0,19615.0,1,-1,19615,6,19620,12
2017-01-09 11:49:00,11:49:00,11:49:00,0,0,0.0,0,0.0,0,19615.0,19615.0,19615.0,19615.0,0,0,0,0,0,0
2017-01-09 11:50:00,11:50:00,11:50:00,0,0,0.0,0,0.0,0,19615.0,19615.0,19615.0,19615.0,0,0,0,0,0,0
2017-01-09 11:51:00,11:51:21,11:51:21,7525,7525,19615.0,7,19620.0,15,19615.0,19615.0,19615.0,19615.0,1,-1,19615,6,19620,14
2017-01-09 11:52:00,11:52:00,11:52:00,0,0,0.0,0,0.0,0,19615.0,19615.0,19615.0,19615.0,0,0,0,0,0,0
2017-01-09 11:53:00,11:53:35,11:53:35,7550,7550,19615.0,12,19620.0,12,19615.0,19615.0,19615.0,19615.0,1,-1,19615,11,19620,14
2017-01-09 11:54:00,11:54:05,11:54:05,7557,7557,19615.0,12,19620.0,11,19615.0,19615.0,19615.0,19615.0,1,-1,19615,13,19620,13
2017-01-09 11:55:00,11:55:04,11:55:38,7568,7584,19615.0,14,19620.0,11,19620.0,19620.0,19620.0,19620.0,11,-1,19615,12,19620,10
2017-01-09 11:56:00,11:56:50,11:56:50,7600,7600,19615.0,11,19620.0,9,19615.0,19615.0,19615.0,19615.0,1,-1,19615,10,19620,10
2017-01-09 11:57:00,11:57:00,11:57:00,0,0,0.0,0,0.0,0,19615.0,19615.0,19615.0,19615.0,0,0,0,0,0,0
2017-01-09 11:58:00,11:58:00,11:58:00,0,0,0.0,0,0.0,0,19615.0,19615.0,19615.0,19615.0,0,0,0,0,0,0
2017-01-09 11:59:00,11:59:34,11:59:34,7613,7613,19615.0,12,19620.0,9,19615.0,19615.0,19615.0,19615.0,1,-1,19615,11,19620,7
2017-01-09 12:00:00,12:00:00,12:00:00,0,0,0.0,0,0.0,0,19615.0,19615.0,19615.0,19615.0,0,0,0,0,0,0
2017-01-09 12:01:00,12:01:19,12:01:56,7631,7654,19615.0,12,19620.0,10,19620.0,19620.0,19620.0,19620.0,24,-6,19620,2,19625,19
2017-01-09 12:02:00,12:02:00,12:02:00,0,0,0.0,0,0.0,0,19620.0,19620.0,19620.0,19620.0,0,0,0,0,0,0
2017-01-09 12:03:00,12:03:55,12:03:55,7667,7667,19620.0,8,19625.0,21,19625.0,19625.0,19625.0,19625.0,1,1,19620,10,19625,20
2017-01-09 12:04:00,12:04:56,12:04:56,7677,7693,19620.0,12,19625.0,20,19625.0,19625.0,19625.0,19625.0,20,20,19625,11,19630,15
2017-01-09 12:05:00,12:05:00,12:05:00,0,0,0.0,0,0.0,0,19625.0,19625.0,19625.0,19625.0,0,0,0,0,0,0
2017-01-09 12:06:00,12:06:33,12:06:33,7708,7716,19625.0,9,19630.0,15,19625.0,19625.0,19625.0,19625.0,5,-3,19620,11,19625,8
2017-01-09 12:07:00,12:07:52,12:07:52,7720,7720,19620.0,13,19625.0,11,19620.0,19620.0,19620.0,19620.0,1,-1,19620,11,19625,12
2017-01-09 12:08:00,12:08:50,12:08:53,7724,7757,19620.0,11,19625.0,11,19620.0,19620.0,19615.0,19615.0,29,-29,19610,10,19615,7
2017-01-09 12:09:00,12:09:04,12:09:47,7761,7784,19610.0,11,19615.0,7,19615.0,19620.0,19615.0,19620.0,13,13,19620,3,19625,16
2017-01-09 12:10:00,12:10:00,12:10:00,0,0,0.0,0,0.0,0,19620.0,19620.0,19620.0,19620.0,0,0,0,0,0,0
2017-01-09 12:11:00,12:11:00,12:11:00,0,0,0.0,0,0.0,0,19620.0,19620.0,19620.0,19620.0,0,0,0,0,0,0
2017-01-09 12:12:00,12:12:10,12:12:10,7795,7809,19620.0,10,19625.0,15,19625.0,19625.0,19625.0,19625.0,18,18,19625,7,19630,14
2017-01-09 12:13:00,12:13:00,12:13:16,7816,7839,19625.0,10,19630.0,14,19630.0,19630.0,19630.0,19630.0,18,18,19625,9,19630,17
2017-01-09 12:14:00,12:14:01,12:14:50,7852,7871,19625.0,9,19630.0,21,19625.0,19630.0,19625.0,19630.0,20,10,19630,8,19635,10
2017-01-09 12:15:00,12:15:02,12:15:52,7877,7921,19630.0,7,19635.0,12,19635.0,19635.0,19635.0,19635.0,28,26,19635,7,19640,12
2017-01-09 12:16:00,12:16:43,12:16:57,7928,7973,19635.0,6,19640.0,11,19640.0,19645.0,19640.0,19640.0,75,45,19640,39,19645,30
2017-01-09 12:17:00,12:17:02,12:17:55,7976,8038,19640.0,39,19645.0,30,19640.0,19645.0,19640.0,19645.0,126,50,19645,22,19645,10
2017-01-09 12:18:00,12:18:04,12:18:13,8040,8062,19645.0,22,19650.0,67,19645.0,19645.0,19645.0,19645.0,33,-13,19645,41,19650,65
2017-01-09 12:19:00,12:19:07,12:19:44,8070,8159,19645.0,46,19650.0,65,19650.0,19660.0,19650.0,19655.0,129,49,19650,63,19655,7
2017-01-09 12:20:00,12:20:59,12:20:59,8172,8176,19650.0,63,19655.0,9,19655.0,19655.0,19655.0,19655.0,6,6,19650,59,19655,2
2017-01-09 12:21:00,12:21:12,12:21:56,8187,8193,19650.0,58,19655.0,6,19650.0,19655.0,19650.0,19655.0,2,0,19650,60,19655,3
2017-01-09 12:22:00,12:22:14,12:22:14,8203,8203,19650.0,11,19655.0,15,19655.0,19655.0,19655.0,19655.0,1,1,19650,13,19655,14
2017-01-09 12:23:00,12:23:17,12:23:57,8219,8237,19650.0,15,19655.0,7,19655.0,19655.0,19650.0,19650.0,14,10,19650,16,19655,14
2017-01-09 12:24:00,12:24:21,12:24:59,8242,8269,19650.0,16,19655.0,14,19650.0,19660.0,19650.0,19660.0,7,5,19655,16,19660,10
2017-01-09 12:25:00,12:25:09,12:25:40,8273,8297,19655.0,16,19660.0,29,19660.0,19660.0,19655.0,19655.0,19,-11,19655,1,19660,30
2017-01-09 12:26:00,12:26:06,12:26:47,8315,8341,19655.0,2,19660.0,34,19655.0,19655.0,19655.0,19655.0,18,14,19650,21,19655,9
2017-01-09 12:27:00,12:27:00,12:27:56,8346,8361,19650.0,21,19655.0,12,19655.0,19655.0,19650.0,19650.0,6,4,19650,17,19655,22
2017-01-09 12:28:00,12:28:01,12:28:51,8365,8396,19650.0,18,19655.0,22,19655.0,19655.0,19650.0,19650.0,21,-11,19645,17,19650,4
2017-01-09 12:29:00,12:29:11,12:29:58,8403,8422,19645.0,17,19650.0,7,19650.0,19655.0,19650.0,19655.0,6,6,19650,4,19655,26
2017-01-09 12:30:00,12:30:00,12:30:57,8427,8450,19650.0,3,19655.0,27,19650.0,19655.0,19650.0,19650.0,10,-2,19650,36,19655,25
2017-01-09 12:31:00,12:31:22,12:31:22,8452,8454,19650.0,36,19655.0,26,19655.0,19655.0,19655.0,19655.0,2,2,19650,42,19655,24
2017-01-09 12:32:00,12:32:02,12:32:43,8457,8476,19650.0,36,19655.0,25,19655.0,19655.0,19650.0,19655.0,11,9,19650,40,19655,7
2017-01-09 12:33:00,12:33:13,12:33:43,8483,8491,19650.0,39,19655.0,9,19655.0,19655.0,19655.0,19655.0,3,3,19650,40,19655,8
2017-01-09 12:34:00,12:34:03,12:34:37,8495,8512,19650.0,40,19655.0,6,19655.0,19655.0,19655.0,19655.0,16,-6,19650,39,19655,5
2017-01-09 12:35:00,12:35:14,12:35:54,8521,8554,19650.0,39,19655.0,6,19650.0,19655.0,19650.0,19655.0,21,-15,19650,20,19655,27
2017-01-09 12:36:00,12:36:11,12:36:52,8557,8588,19650.0,20,19655.0,27,19655.0,19655.0,19650.0,19650.0,19,15,19645,17,19650,10
2017-01-09 12:37:00,12:37:08,12:37:37,8593,8670,19645.0,17,19650.0,10,19650.0,19660.0,19650.0,19660.0,108,14,19655,17,19660,3
2017-01-09 12:38:00,12:38:07,12:38:48,8678,8704,19655.0,17,19660.0,4,19660.0,19660.0,19660.0,19660.0,18,-2,19655,19,19665,60
2017-01-09 12:39:00,12:39:19,12:39:33,8713,8729,19660.0,5,19665.0,60,19660.0,19660.0,19660.0,19660.0,10,4,19660,9,19665,58
2017-01-09 12:40:00,12:40:22,12:40:49,8736,8770,19660.0,14,19665.0,59,19660.0,19660.0,19660.0,19660.0,31,-31,19660,7,19665,55
2017-01-09 12:41:00,12:41:52,12:41:52,8782,8782,19660.0,18,19665.0,54,19660.0,19660.0,19660.0,19660.0,1,-1,19660,19,19665,52
2017-01-09 12:42:00,12:42:00,12:42:00,0,0,0.0,0,0.0,0,19660.0,19660.0,19660.0,19660.0,0,0,0,0,0,0
2017-01-09 12:43:00,12:43:10,12:43:12,8789,8851,19660.0,20,19665.0,53,19665.0,19680.0,19665.0,19665.0,122,104,19665,13,19670,17
2017-01-09 12:44:00,12:44:00,12:44:57,8862,8923,19665.0,32,19670.0,16,19665.0,19670.0,19665.0,19670.0,62,-6,19665,27,19670,17
2017-01-09 12:45:00,12:45:13,12:45:56,8931,8948,19665.0,29,19670.0,17,19670.0,19670.0,19665.0,19665.0,5,3,19665,30,19670,17
2017-01-09 12:46:00,12:46:19,12:46:27,8952,8954,19665.0,29,19670.0,17,19665.0,19665.0,19665.0,19665.0,2,-2,19665,29,19670,23
2017-01-09 12:47:00,12:47:00,12:47:00,0,0,0.0,0,0.0,0,19665.0,19665.0,19665.0,19665.0,0,0,0,0,0,0
2017-01-09 12:48:00,12:48:31,12:48:31,8968,8968,19665.0,33,19670.0,19,19665.0,19665.0,19665.0,19665.0,1,-1,19665,32,19670,25
2017-01-09 12:49:00,12:49:02,12:49:02,8972,8972,19665.0,32,19670.0,19,19665.0,19665.0,19665.0,19665.0,1,-1,19665,31,19670,18
2017-01-09 12:50:00,12:50:00,12:50:00,0,0,0.0,0,0.0,0,19665.0,19665.0,19665.0,19665.0,0,0,0,0,0,0
2017-01-09 12:51:00,12:51:30,12:51:44,8979,9004,19665.0,34,19670.0,17,19670.0,19670.0,19670.0,19670.0,24,12,19670,15,19675,20
2017-01-09 12:52:00,12:52:43,12:52:51,9016,9050,19670.0,23,19675.0,28,19670.0,19670.0,19665.0,19670.0,41,-37,19665,22,19670,18
2017-01-09 12:53:00,12:53:03,12:53:57,9057,9118,19665.0,25,19670.0,17,19670.0,19675.0,19670.0,19675.0,27,15,19670,20,19675,12
2017-01-09 12:54:00,12:54:30,12:54:35,9128,9132,19670.0,17,19675.0,18,19675.0,19675.0,19670.0,19670.0,2,0,19670,19,19675,14
2017-01-09 12:55:00,12:55:32,12:55:48,9139,9165,19670.0,20,19675.0,6,19675.0,19675.0,19675.0,19675.0,27,1,19670,17,19675,2
2017-01-09 12:56:00,12:56:03,12:56:36,9171,9181,19670.0,20,19675.0,3,19675.0,19675.0,19670.0,19670.0,4,2,19670,19,19675,10
2017-01-09 12:57:00,12:57:19,12:57:50,9188,9202,19670.0,19,19675.0,13,19670.0,19675.0,19670.0,19675.0,4,2,19675,2,19680,29
2017-01-09 12:58:00,12:58:53,12:58:53,9233,9243,19675.0,13,19680.0,14,19675.0,19675.0,19675.0,19675.0,13,-13,19670,15,19675,12
2017-01-09 12:59:00,12:59:06,12:59:06,9248,9249,19670.0,18,19675.0,12,19675.0,19675.0,19675.0,19675.0,2,2,19670,19,19675,10
2017-01-09 13:00:00,13:00:00,13:00:26,9261,9296,19670.0,19,19675.0,13,19670.0,19675.0,19670.0,19675.0,14,2,19675,2,19680,23
2017-01-09 13:01:00,13:01:00,13:01:00,0,0,0.0,0,0.0,0,19675.0,19675.0,19675.0,19675.0,0,0,0,0,0,0
2017-01-09 13:02:00,13:02:30,13:02:41,9315,9358,19675.0,25,19680.0,24,19680.0,19680.0,19675.0,19675.0,51,37,19675,16,19680,12
2017-01-09 13:03:00,13:03:27,13:03:49,9366,9412,19675.0,17,19680.0,14,19680.0,19685.0,19675.0,19685.0,38,24,19680,20,19685,20
2017-01-09 13:04:00,13:04:02,13:04:42,9418,9480,19680.0,20,19685.0,21,19680.0,19690.0,19680.0,19685.0,79,71,19685,27,19690,10
2017-01-09 13:05:00,13:05:17,13:05:53,9487,9511,19685.0,27,19690.0,7,19690.0,19690.0,19685.0,19685.0,12,-10,19685,17,19690,13
2017-01-09 13:06:00,13:06:00,13:06:54,9515,9559,19685.0,18,19690.0,13,19690.0,19690.0,19675.0,19675.0,28,-12,19675,14,19680,16
2017-01-09 13:07:00,13:07:41,13:07:53,9570,9607,19675.0,23,19680.0,16,19680.0,19680.0,19680.0,19680.0,33,-1,19675,21,19680,15
2017-01-09 13:08:00,13:08:29,13:08:29,9615,9616,19675.0,22,19680.0,18,19675.0,19675.0,19675.0,19675.0,3,-3,19675,13,19680,20
2017-01-09 13:09:00,13:09:00,13:09:00,0,0,0.0,0,0.0,0,19675.0,19675.0,19675.0,19675.0,0,0,0,0,0,0
2017-01-09 13:10:00,13:10:12,13:10:47,9636,9674,19675.0,24,19680.0,16,19680.0,19680.0,19675.0,19675.0,27,-3,19675,7,19680,19
2017-01-09 13:11:00,13:11:15,13:11:42,9695,9709,19675.0,10,19680.0,20,19680.0,19680.0,19675.0,19675.0,3,-1,19670,19,19680,35
2017-01-09 13:12:00,13:12:08,13:12:08,9719,9724,19675.0,9,19680.0,35,19675.0,19675.0,19675.0,19675.0,9,-9,19670,16,19675,18
2017-01-09 13:13:00,13:13:46,13:13:48,9740,9752,19670.0,25,19675.0,26,19670.0,19675.0,19670.0,19675.0,22,20,19675,9,19680,51
2017-01-09 13:14:00,13:14:21,13:14:25,9766,9769,19675.0,5,19680.0,52,19675.0,19675.0,19675.0,19675.0,3,-3,19675,2,19680,52
2017-01-09 13:15:00,13:15:00,13:15:30,9774,9780,19675.0,7,19680.0,52,19680.0,19680.0,19675.0,19675.0,6,4,19675,15,19680,49
2017-01-09 13:16:00,13:16:35,13:16:35,9793,9793,19675.0,21,19680.0,44,19675.0,19675.0,19675.0,19675.0,1,-1,19675,20,19680,43
2017-01-09 13:17:00,13:17:09,13:17:58,9796,9832,19675.0,20,19680.0,43,19680.0,19680.0,19675.0,19680.0,19,5,19675,17,19680,29
2017-01-09 13:18:00,13:18:00,13:18:00,0,0,0.0,0,0.0,0,19680.0,19680.0,19680.0,19680.0,0,0,0,0,0,0
2017-01-09 13:19:00,13:19:16,13:19:53,9843,9869,19675.0,17,19680.0,31,19675.0,19680.0,19675.0,19680.0,19,15,19680,2,19685,42
2017-01-09 13:20:00,13:20:02,13:20:13,9873,9875,19680.0,2,19685.0,41,19680.0,19685.0,19680.0,19685.0,2,0,19680,6,19685,39
2017-01-09 13:21:00,13:21:48,13:21:54,9902,9915,19680.0,11,19685.0,39,19680.0,19680.0,19680.0,19680.0,10,-10,19680,10,19685,38
2017-01-09 13:22:00,13:22:07,13:22:22,9918,9961,19680.0,10,19685.0,38,19685.0,19685.0,19680.0,19680.0,33,-15,19680,22,19685,28
2017-01-09 13:23:00,13:23:58,13:23:58,9974,9975,19680.0,32,19685.0,28,19680.0,19680.0,19680.0,19680.0,2,-2,19680,28,19685,30
2017-01-09 13:24:00,13:24:53,13:24:54,9983,9997,19680.0,31,19685.0,27,19680.0,19685.0,19680.0,19685.0,12,10,19685,11,19690,26
2017-01-09 13:25:00,13:25:20,13:25:35,10008,10037,19685.0,16,19690.0,26,19685.0,19685.0,19685.0,19685.0,23,-17,19685,12,19690,26
2017-01-09 13:26:00,13:26:14,13:26:20,10046,10062,19685.0,14,19690.0,28,19685.0,19685.0,19680.0,19680.0,18,-18,19680,22,19685,12
2017-01-09 13:27:00,13:27:36,13:27:36,10076,10076,19680.0,23,19685.0,14,19680.0,19680.0,19680.0,19680.0,1,-1,19680,22,19685,13
2017-01-09 13:28:00,13:28:10,13:28:59,10083,10115,19680.0,27,19685.0,12,19685.0,19685.0,19680.0,19680.0,15,13,19680,21,19685,13
2017-01-09 13:29:00,13:29:17,13:29:29,10122,10128,19680.0,11,19685.0,14,19680.0,19685.0,19680.0,19685.0,2,0,19680,24,19685,12
2017-01-09 13:30:00,13:30:01,13:30:01,10140,10152,19680.0,29,19685.0,13,19685.0,19685.0,19685.0,19685.0,15,15,19685,7,19690,34
2017-01-09 13:31:00,13:31:20,13:31:32,10164,10174,19685.0,17,19690.0,30,19685.0,19690.0,19685.0,19690.0,7,1,19685,16,19690,25
2017-01-09 13:32:00,13:32:17,13:32:44,10181,10238,19685.0,16,19690.0,29,19685.0,19685.0,19675.0,19675.0,47,-45,19670,20,19675,9
2017-01-09 13:33:00,13:33:21,13:33:48,10248,10263,19670.0,17,19675.0,12,19675.0,19680.0,19675.0,19680.0,6,6,19675,14,19680,41
2017-01-09 13:34:00,13:34:00,13:34:00,0,0,0.0,0,0.0,0,19680.0,19680.0,19680.0,19680.0,0,0,0,0,0,0
2017-01-09 13:35:00,13:35:11,13:35:46,10285,10295,19675.0,14,19680.0,39,19680.0,19680.0,19675.0,19675.0,5,3,19675,15,19680,34
2017-01-09 13:36:00,13:36:23,13:36:23,10300,10300,19675.0,16,19680.0,36,19680.0,19680.0,19680.0,19680.0,1,1,19675,12,19680,33
2017-01-09 13:37:00,13:37:25,13:37:25,10304,10304,19675.0,12,19680.0,39,19680.0,19680.0,19680.0,19680.0,1,1,19675,15,19680,38
2017-01-09 13:38:00,13:38:32,13:38:32,10312,10312,19675.0,12,19680.0,39,19675.0,19675.0,19675.0,19675.0,1,-1,19675,11,19680,38
2017-01-09 13:39:00,13:39:27,13:39:37,10318,10339,19675.0,14,19680.0,39,19680.0,19685.0,19680.0,19685.0,46,30,19680,19,19685,28
2017-01-09 13:40:00,13:40:00,13:40:00,0,0,0.0,0,0.0,0,19685.0,19685.0,19685.0,19685.0,0,0,0,0,0,0
2017-01-09 13:41:00,13:41:19,13:41:51,10354,10398,19680.0,19,19685.0,27,19680.0,19690.0,19680.0,19685.0,43,13,19680,18,19685,19
2017-01-09 13:42:00,13:42:24,13:42:24,10405,10405,19680.0,12,19685.0,20,19680.0,19680.0,19680.0,19680.0,1,-1,19680,11,19685,22
2017-01-09 13:43:00,13:43:00,13:43:00,0,0,0.0,0,0.0,0,19680.0,19680.0,19680.0,19680.0,0,0,0,0,0,0
2017-01-09 13:44:00,13:44:09,13:44:50,10417,10433,19680.0,17,19685.0,21,19680.0,19685.0,19680.0,19685.0,9,7,19680,17,19685,16
2017-01-09 13:45:00,13:45:32,13:45:53,10438,10442,19680.0,17,19685.0,15,19685.0,19685.0,19685.0,19685.0,3,3,19680,16,19685,13
2017-01-09 13:46:00,13:46:13,13:46:52,10452,10470,19680.0,12,19685.0,20,19680.0,19680.0,19675.0,19675.0,15,-11,19675,10,19680,19
2017-01-09 13:47:00,13:47:43,13:47:48,10484,10512,19675.0,15,19680.0,20,19680.0,19685.0,19680.0,19685.0,29,29,19685,22,19690,43
2017-01-09 13:48:00,13:48:20,13:48:20,10528,10528,19685.0,24,19690.0,37,19685.0,19685.0,19685.0,19685.0,3,-3,19685,19,19690,40
2017-01-09 13:49:00,13:49:18,13:49:29,10538,10577,19685.0,24,19690.0,40,19685.0,19695.0,19685.0,19695.0,31,17,19690,21,19695,21
2017-01-09 13:50:00,13:50:20,13:50:38,10591,10613,19690.0,17,19695.0,31,19690.0,19690.0,19690.0,19690.0,15,-15,19690,12,19695,29
2017-01-09 13:51:00,13:51:20,13:51:34,10630,10637,19690.0,17,19695.0,30,19690.0,19695.0,19690.0,19695.0,4,2,19690,20,19695,22
2017-01-09 13:52:00,13:52:08,13:52:53,10645,10696,19690.0,19,19695.0,29,19695.0,19695.0,19690.0,19690.0,40,2,19685,38,19690,21
2017-01-09 13:53:00,13:53:07,13:53:56,10699,10748,19685.0,38,19690.0,21,19690.0,19690.0,19690.0,19690.0,75,27,19685,47,19690,11
2017-01-09 13:54:00,13:54:02,13:54:50,10756,10794,19685.0,47,19690.0,8,19690.0,19695.0,19690.0,19690.0,34,-8,19685,38,19690,20
2017-01-09 13:55:00,13:55:09,13:55:09,10803,10803,19685.0,36,19690.0,20,19685.0,19685.0,19685.0,19685.0,1,-1,19685,35,19690,22
2017-01-09 13:56:00,13:56:18,13:56:32,10814,10845,19685.0,37,19690.0,72,19690.0,19690.0,19685.0,19685.0,35,-21,19680,42,19685,11
2017-01-09 13:57:00,13:57:01,13:57:54,10852,10874,19680.0,45,19685.0,12,19680.0,19685.0,19680.0,19680.0,19,-15,19680,36,19685,16
2017-01-09 13:58:00,13:58:02,13:58:53,10877,10892,19680.0,36,19685.0,16,19685.0,19685.0,19685.0,19685.0,9,9,19680,41,19685,3
2017-01-09 13:59:00,13:59:00,13:59:59,10896,11000,19680.0,41,19685.0,4,19685.0,19685.0,19680.0,19685.0,87,27,19680,23,19685,10
2017-01-09 14:00:00,14:00:00,14:00:51,11003,11137,19680.0,23,19685.0,10,19685.0,19695.0,19680.0,19685.0,148,14,19680,29,19690,46
2017-01-09 14:01:00,14:01:06,14:01:52,11144,11189,19685.0,4,19690.0,47,19690.0,19690.0,19680.0,19680.0,25,-3,19680,16,19685,20
2017-01-09 14:02:00,14:02:12,14:02:57,11200,11230,19680.0,25,19685.0,11,19680.0,19685.0,19680.0,19680.0,20,-4,19680,19,19685,16
2017-01-09 14:03:00,14:03:01,14:03:44,11233,11262,19680.0,19,19685.0,16,19685.0,19685.0,19680.0,19685.0,16,0,19680,21,19685,8
2017-01-09 14:04:00,14:04:03,14:04:55,11274,11303,19680.0,20,19685.0,12,19680.0,19685.0,19680.0,19685.0,17,-9,19680,18,19685,14
2017-01-09 14:05:00,14:05:03,14:05:44,11311,11330,19680.0,22,19685.0,14,19680.0,19680.0,19680.0,19680.0,13,-13,19680,22,19685,17
2017-01-09 14:06:00,14:06:04,14:06:49,11335,11366,19680.0,30,19685.0,16,19680.0,19685.0,19680.0,19680.0,19,-9,19680,24,19685,14
2017-01-09 14:07:00,14:07:09,14:07:50,11375,11398,19680.0,17,19685.0,18,19680.0,19680.0,19680.0,19680.0,15,-15,19680,19,19685,16
2017-01-09 14:08:00,14:08:07,14:08:55,11403,11425,19680.0,19,19685.0,15,19680.0,19685.0,19680.0,19680.0,18,-12,19680,19,19685,12
2017-01-09 14:09:00,14:09:20,14:09:55,11435,11479,19680.0,13,19685.0,25,19680.0,19685.0,19680.0,19685.0,44,-18,19680,14,19685,8
